##TITLE=2 empty raboc vyshest
##$NOTE=11.03.2023 11:01:3 ^0 x8 v:1
##$ITAB=-1,-1
##FIRSTX=499.643
##DELTAX=1.92912
##NPOINTS=2333
##XUNITS=1/CM
##YUNITS=TRANSMITTANCE
499.643	107.569
501.572	108.097
503.501	79.0144
505.43	83.8752
507.36	93.9775
509.289	136.899
511.218	170.292
513.147	150.08
515.076	105.086
517.005	81.8593
518.934	101.857
520.863	108.498
522.792	128.23
524.722	97.8054
526.651	82.263
528.58	74.4637
530.509	73.029
532.438	106.138
534.367	139.597
536.296	122.7
538.225	88.023
540.155	84.8335
542.084	95.7386
544.013	105.59
545.942	124.915
547.871	206.385
549.8	245.679
551.729	187.303
553.658	173.307
555.588	120.031
557.517	97.392
559.446	71.721
561.375	57.123
563.304	65.0264
565.233	69.6623
567.162	70.1686
569.091	84.803
571.021	87.1572
572.95	88.133
574.879	80.3423
576.808	70.1183
578.737	70.0837
580.666	72.0558
582.595	82.0405
584.524	89.4885
586.454	90.7839
588.383	91.046
590.312	75.5257
592.241	79.1804
594.17	138.59
596.099	128.374
598.028	90.403
599.957	78.1134
601.887	73.0555
603.816	81.5837
605.745	83.034
607.674	92.5977
609.603	86.341
611.532	119.146
613.461	143.491
615.39	148.456
617.32	146.204
619.249	109.837
621.178	93.9552
623.107	106.224
625.036	114.619
626.965	101.353
628.894	65.8542
630.823	49.7378
632.753	63.6194
634.682	96.6719
636.611	129.574
638.54	115.962
640.469	90.5916
642.398	125.877
644.327	184.864
646.256	162.871
648.186	106.532
650.115	68.4185
652.044	46.6541
653.973	50.6643
655.902	48.2561
657.831	59.3729
659.76	74.8827
661.689	120.393
663.619	155.338
665.548	136.639
667.477	100.972
669.406	82.0592
671.335	86.7514
673.264	75.7138
675.193	89.8111
677.122	95.5031
679.052	85.185
680.981	87.2955
682.91	101.012
684.839	105.344
686.768	130.064
688.697	154.311
690.626	162.769
692.555	138.339
694.485	128.378
696.414	126.68
698.343	97.8304
700.272	91.7796
702.201	82.3246
704.13	55.8681
706.059	56.4047
707.988	69.4451
709.917	83.4672
711.847	101.015
713.776	116.4
715.705	92.5548
717.634	79.5309
719.563	98.4372
721.492	162.564
723.421	117.463
725.35	113.377
727.28	116.511
729.209	116.058
731.138	116.161
733.067	97.7905
734.996	124.1
736.925	199.997
738.854	164.289
740.783	172.369
742.713	153.598
744.642	137.561
746.571	148.78
748.5	150.234
750.429	134.896
752.358	103.064
754.287	90.4219
756.216	84.448
758.146	105.844
760.075	90.2324
762.004	57.833
763.933	83.3134
765.862	118.636
767.791	164.081
769.72	161.279
771.649	74.3868
773.579	79.589
775.508	112.146
777.437	161.355
779.366	164.936
781.295	123.915
783.224	123.214
785.153	122.043
787.082	98.9112
789.012	90.8577
790.941	109.301
792.87	174.335
794.799	223.604
796.728	173.66
798.657	155.035
800.586	158.003
802.515	170.176
804.445	197.897
806.374	155.871
808.303	129.59
810.232	122.255
812.161	76.8217
814.09	60.6843
816.019	52.2613
817.948	50.8224
819.878	59.6535
821.807	59.9021
823.736	79.7203
825.665	77.47
827.594	69.1197
829.523	91.8797
831.452	107.077
833.381	90.1807
835.311	67.1485
837.24	64.653
839.169	77.5679
841.098	106.014
843.027	155.204
844.956	165.41
846.885	137.954
848.814	144.636
850.744	170.798
852.673	161.882
854.602	129.57
856.531	103.768
858.46	124.924
860.389	125.694
862.318	91.293
864.247	74.1042
866.177	86.6266
868.106	148.829
870.035	106.17
871.964	72.8394
873.893	68.4047
875.822	62.4577
877.751	55.4698
879.68	95.369
881.609	129.728
883.539	129.996
885.468	93.4121
887.397	65.4691
889.326	57.5483
891.255	63.3239
893.184	73.0218
895.113	86.889
897.042	85.1634
898.972	101.527
900.901	157.898
902.83	169.387
904.759	177.356
906.688	157.159
908.617	89.3955
910.546	72.8824
912.475	98.7598
914.405	105.554
916.334	123.623
918.263	135.975
920.192	95.7705
922.121	78.2094
924.05	68.1812
925.979	77.3895
927.908	94.6195
929.838	127.076
931.767	96.9411
933.696	63.299
935.625	56.2366
937.554	60.2213
939.483	77.1077
941.412	81.453
943.341	60.4667
945.271	74.8192
947.2	88.51
949.129	85.5332
951.058	93.719
952.987	84.2473
954.916	72.5852
956.845	79.7659
958.774	87.4461
960.704	98.4102
962.633	111.348
964.562	72.1545
966.491	62.3469
968.42	61.9154
970.349	104.719
972.278	111.391
974.207	89.6888
976.137	103.386
978.066	76.5869
979.995	58.3358
981.924	67.1253
983.853	80.3437
985.782	93.6937
987.711	151.543
989.64	247.697
991.57	207.368
993.499	138.219
995.428	97.3815
997.357	76.7418
999.286	66.4383
1001.22	49.157
1003.14	54.0145
1005.07	59.705
1007	62.6518
1008.93	49.1323
1010.86	44.6597
1012.79	54.871
1014.72	103.416
1016.65	149.917
1018.58	141.046
1020.51	81.4701
1022.44	69.7649
1024.36	72.1034
1026.29	77.0423
1028.22	104.695
1030.15	94.7121
1032.08	85.6797
1034.01	64.9021
1035.94	69.7926
1037.87	61.6834
1039.8	91.4479
1041.73	118.187
1043.66	122.33
1045.58	82.2952
1047.51	71.3816
1049.44	72.4969
1051.37	74.501
1053.3	88.8807
1055.23	88.7716
1057.16	81.2627
1059.09	84.8005
1061.02	96.4797
1062.95	104.247
1064.88	109.977
1066.81	117.077
1068.73	114.8
1070.66	110.869
1072.59	122.595
1074.52	136.903
1076.45	123.851
1078.38	89.9612
1080.31	63.7993
1082.24	46.9452
1084.17	48.2377
1086.1	77.0424
1088.03	92.7186
1089.95	99.7481
1091.88	116.869
1093.81	117.886
1095.74	114.596
1097.67	120.677
1099.6	123.056
1101.53	112.055
1103.46	115.552
1105.39	128.603
1107.32	138.682
1109.25	121.462
1111.18	103.565
1113.1	98.5074
1115.03	98.8452
1116.96	134.967
1118.89	115.819
1120.82	98.4918
1122.75	111.65
1124.68	114.308
1126.61	106.136
1128.54	117.426
1130.47	117.709
1132.4	106.495
1134.32	117.225
1136.25	115.22
1138.18	121.214
1140.11	100.2
1142.04	71.7878
1143.97	85.9426
1145.9	111.803
1147.83	110.085
1149.76	117.354
1151.69	108.041
1153.62	112.907
1155.55	102.948
1157.47	87.6427
1159.4	86.2393
1161.33	70.151
1163.26	62.6844
1165.19	81.7264
1167.12	95.2662
1169.05	99.7165
1170.98	96.6958
1172.91	80.0496
1174.84	68.1167
1176.77	89.7676
1178.69	102.724
1180.62	95.7286
1182.55	81.4142
1184.48	68.3421
1186.41	73.0228
1188.34	96.8757
1190.27	108.433
1192.2	89.9481
1194.13	95.7244
1196.06	95.0674
1197.99	96.4961
1199.91	76.144
1201.84	69.9774
1203.77	59.0133
1205.7	67.6064
1207.63	67.5761
1209.56	59.3143
1211.49	68.6664
1213.42	104.137
1215.35	89.9203
1217.28	76.4723
1219.21	83.2991
1221.14	86.0972
1223.06	64.5108
1224.99	58.0776
1226.92	58.8574
1228.85	58.4872
1230.78	45.7076
1232.71	50.2036
1234.64	80.0829
1236.57	107.384
1238.5	111.462
1240.43	133.335
1242.36	140.14
1244.28	167.049
1246.21	188.898
1248.14	126.827
1250.07	88.4466
1252	65.6652
1253.93	68.7068
1255.86	71.8314
1257.79	68.3156
1259.72	74.9734
1261.65	77.7709
1263.58	107.043
1265.51	106.399
1267.43	65.7342
1269.36	27.3327
1271.29	40.705
1273.22	72.6776
1275.15	65.8323
1277.08	47.9702
1279.01	64.452
1280.94	124.597
1282.87	120.495
1284.8	89.426
1286.73	76.2484
1288.65	92.6721
1290.58	96.9357
1292.51	107.868
1294.44	146.048
1296.37	136.237
1298.3	94.8095
1300.23	65.5955
1302.16	64.3127
1304.09	74.0341
1306.02	75.5282
1307.95	115.768
1309.87	150.845
1311.8	123.294
1313.73	77.3514
1315.66	58.8855
1317.59	47.1833
1319.52	54.3816
1321.45	63.7279
1323.38	83.0333
1325.31	173.038
1327.24	147.963
1329.17	173.431
1331.1	186.191
1333.02	141.263
1334.95	118.787
1336.88	180.357
1338.81	282
1340.74	226.054
1342.67	226.769
1344.6	189.315
1346.53	131.638
1348.46	128.849
1350.39	117.529
1352.32	90.6983
1354.24	75.0076
1356.17	61.6953
1358.1	58.4616
1360.03	44.8138
1361.96	54.0236
1363.89	94.7387
1365.82	111.781
1367.75	95.847
1369.68	84.23
1371.61	79.3435
1373.54	84.5872
1375.47	108.704
1377.39	134.963
1379.32	129.775
1381.25	115.102
1383.18	108.843
1385.11	98.593
1387.04	77.8979
1388.97	75.0845
1390.9	55.1416
1392.83	40.4044
1394.76	41.1895
1396.69	38.4956
1398.61	55.1573
1400.54	83.5995
1402.47	92.4071
1404.4	108.88
1406.33	135.338
1408.26	125.084
1410.19	88.2799
1412.12	68.9879
1414.05	107.076
1415.98	167.912
1417.91	109.852
1419.83	92.1026
1421.76	100.211
1423.69	105.118
1425.62	140.78
1427.55	180.212
1429.48	184.941
1431.41	181.781
1433.34	151.299
1435.27	115.651
1437.2	109.747
1439.13	122.015
1441.06	110.234
1442.98	70.6322
1444.91	65.8746
1446.84	83.9193
1448.77	106.899
1450.7	123.916
1452.63	144.301
1454.56	148.268
1456.49	119.551
1458.42	126.798
1460.35	101.336
1462.28	80.6047
1464.2	71.7638
1466.13	82.5288
1468.06	108.828
1469.99	178.146
1471.92	182.239
1473.85	157.129
1475.78	141.361
1477.71	148.304
1479.64	111.017
1481.57	90.9602
1483.5	74.5346
1485.43	68.9809
1487.35	83.0752
1489.28	69.4703
1491.21	70.898
1493.14	65.6505
1495.07	78.5012
1497	68.8323
1498.93	52.8396
1500.86	55.2432
1502.79	72.0774
1504.72	94.4924
1506.65	103.19
1508.57	91.5391
1510.5	76.9232
1512.43	61.8376
1514.36	50.7372
1516.29	63.8267
1518.22	77.1388
1520.15	91.214
1522.08	97.9162
1524.01	101.4
1525.94	107.622
1527.87	125.624
1529.8	125.018
1531.72	112.083
1533.65	110.886
1535.58	102.024
1537.51	82.3913
1539.44	48.0843
1541.37	29.9426
1543.3	48.9816
1545.23	87.6457
1547.16	129.979
1549.09	120.363
1551.02	126
1552.94	68.2795
1554.87	54.6407
1556.8	64.9478
1558.73	80.0992
1560.66	82.9798
1562.59	76.0347
1564.52	59.6207
1566.45	62.9959
1568.38	89.6669
1570.31	121.977
1572.24	121.611
1574.16	117.831
1576.09	144.845
1578.02	123.085
1579.95	87.0179
1581.88	73.0659
1583.81	59.3908
1585.74	41.0528
1587.67	47.5416
1589.6	82.673
1591.53	82.7195
1593.46	71.3901
1595.39	81.6786
1597.31	114.544
1599.24	126.945
1601.17	133.617
1603.1	127.882
1605.03	81.5544
1606.96	61.8971
1608.89	64.4419
1610.82	99.2482
1612.75	116.106
1614.68	125.799
1616.61	147.447
1618.53	160.349
1620.46	140.523
1622.39	151.479
1624.32	88.3817
1626.25	32.2582
1628.18	58.3696
1630.11	94.4821
1632.04	110.624
1633.97	114.384
1635.9	126.385
1637.83	115.048
1639.76	104.267
1641.68	89.2189
1643.61	82.5397
1645.54	88.7549
1647.47	115.493
1649.4	111.855
1651.33	98.7571
1653.26	86.6305
1655.19	63.7437
1657.12	71.3389
1659.05	87.6062
1660.98	122.718
1662.9	143.889
1664.83	229.543
1666.76	175.094
1668.69	91.9172
1670.62	78.7335
1672.55	97.381
1674.48	160.58
1676.41	184.494
1678.34	82.6693
1680.27	63.0868
1682.2	59.2379
1684.12	76.9157
1686.05	82.6783
1687.98	83.2611
1689.91	81.6424
1691.84	86.6471
1693.77	87.3169
1695.7	70.3898
1697.63	57.0695
1699.56	51.2484
1701.49	50.4972
1703.42	83.791
1705.35	104.088
1707.27	96.9828
1709.2	84.6333
1711.13	83.655
1713.06	71.72
1714.99	73.925
1716.92	59.5518
1718.85	45.1251
1720.78	61.5252
1722.71	86.883
1724.64	91.494
1726.57	105.484
1728.49	138.021
1730.42	157.436
1732.35	143.245
1734.28	97.3684
1736.21	86.4396
1738.14	91.5862
1740.07	131.063
1742	133.353
1743.93	125.53
1745.86	94.1583
1747.79	80.0886
1749.72	86.0704
1751.64	107.541
1753.57	107.388
1755.5	86.6076
1757.43	52.9324
1759.36	39.5857
1761.29	54.8986
1763.22	73.6636
1765.15	66.2182
1767.08	65.9144
1769.01	80.4195
1770.94	120.699
1772.86	158.978
1774.79	137.476
1776.72	118.692
1778.65	111.327
1780.58	105.977
1782.51	141.822
1784.44	112.175
1786.37	96.6659
1788.3	87.0746
1790.23	100.391
1792.16	103.212
1794.08	94.2798
1796.01	112.981
1797.94	136.512
1799.87	136.808
1801.8	114.047
1803.73	76.4994
1805.66	103.765
1807.59	121.703
1809.52	121.764
1811.45	92.8905
1813.38	70.6049
1815.31	79.9866
1817.23	105.764
1819.16	124.524
1821.09	82.3308
1823.02	35.2064
1824.95	40.8271
1826.88	73.2518
1828.81	102.748
1830.74	114.248
1832.67	110.421
1834.6	71.9151
1836.53	62.0688
1838.45	73.1344
1840.38	82.8768
1842.31	90.1065
1844.24	85.4555
1846.17	112.16
1848.1	91.0508
1850.03	88.2624
1851.96	83.2351
1853.89	64.5989
1855.82	60.463
1857.75	82.7222
1859.68	129.785
1861.6	180.688
1863.53	167.918
1865.46	128.217
1867.39	141.151
1869.32	255.79
1871.25	350.745
1873.18	209.675
1875.11	176.313
1877.04	167.431
1878.97	140.273
1880.9	107.763
1882.82	68.919
1884.75	53.1347
1886.68	68.2295
1888.61	130.02
1890.54	182.147
1892.47	124.82
1894.4	115.459
1896.33	100.986
1898.26	79.4936
1900.19	78.1665
1902.12	100.267
1904.05	113.612
1905.97	91.6106
1907.9	81.8786
1909.83	73.0572
1911.76	64.8642
1913.69	91.2664
1915.62	154.249
1917.55	133.818
1919.48	122.754
1921.41	165.602
1923.34	125.695
1925.27	64.1676
1927.19	34.4173
1929.12	60.9469
1931.05	76.9861
1932.98	79.3165
1934.91	61.8656
1936.84	96.0214
1938.77	143.488
1940.7	120.785
1942.63	115.84
1944.56	104.359
1946.49	117.934
1948.41	120.979
1950.34	90.46
1952.27	94.7915
1954.2	142.953
1956.13	171.362
1958.06	160.712
1959.99	101.472
1961.92	84.9857
1963.85	87.0664
1965.78	92.5945
1967.71	131.155
1969.64	154.931
1971.56	138.27
1973.49	95.5843
1975.42	103.569
1977.35	113.417
1979.28	111.018
1981.21	106.554
1983.14	94.7542
1985.07	78.3615
1987	74.9299
1988.93	93.5092
1990.86	100.375
1992.78	86.0493
1994.71	53.1865
1996.64	63.844
1998.57	81.6636
2000.5	102.469
2002.43	123.295
2004.36	130.316
2006.29	118.523
2008.22	125.73
2010.15	118.195
2012.08	114.574
2014.01	173.002
2015.93	130.17
2017.86	101.649
2019.79	139.417
2021.72	207.822
2023.65	218.486
2025.58	176.853
2027.51	119.164
2029.44	90.5971
2031.37	91.4313
2033.3	114.423
2035.23	131.136
2037.15	152.589
2039.08	158.817
2041.01	142.968
2042.94	114.409
2044.87	101.832
2046.8	88.5565
2048.73	59.0873
2050.66	54.026
2052.59	64.4095
2054.52	106.144
2056.45	230.667
2058.37	199.268
2060.3	188.448
2062.23	148.13
2064.16	104.261
2066.09	90.5914
2068.02	82.7586
2069.95	95.9088
2071.88	103.792
2073.81	92.6247
2075.74	83.5708
2077.67	97.895
2079.6	124.611
2081.52	153.068
2083.45	136.371
2085.38	105.49
2087.31	120.541
2089.24	129.685
2091.17	176.459
2093.1	237.292
2095.03	255.141
2096.96	119.184
2098.89	99.4593
2100.82	81.0093
2102.74	60.6709
2104.67	53.3533
2106.6	62.9942
2108.53	81.5878
2110.46	96.3275
2112.39	100.065
2114.32	99.2197
2116.25	99.9795
2118.18	102.381
2120.11	103.503
2122.04	102.167
2123.97	99.7359
2125.89	97.9584
2127.82	97.4607
2129.75	97.9667
2131.68	98.9377
2133.61	99.8494
2135.54	100.294
2137.47	100.117
2139.4	99.5271
2141.33	99.039
2143.26	99.141
2145.19	99.8814
2147.11	100.772
2149.04	101.197
2150.97	100.992
2152.9	100.544
2154.83	100.304
2156.76	100.372
2158.69	100.629
2160.62	101.025
2162.55	101.494
2164.48	101.688
2166.41	101.177
2168.33	100.026
2170.26	98.923
2172.19	98.5749
2174.12	99.0838
2176.05	99.9543
2177.98	100.615
2179.91	100.876
2181.84	100.953
2183.77	101.172
2185.7	101.608
2187.63	101.986
2189.56	101.969
2191.48	101.612
2193.41	101.357
2195.34	101.5
2197.27	101.798
2199.2	101.759
2201.13	101.282
2203.06	100.778
2204.99	100.656
2206.92	100.891
2208.85	101.115
2210.78	101.018
2212.7	100.593
2214.63	100.085
2216.56	99.7981
2218.49	99.8992
2220.42	100.304
2222.35	100.71
2224.28	100.735
2226.21	100.132
2228.14	99.1146
2230.07	98.4749
2232	99.0113
2233.93	100.594
2235.85	101.989
2237.78	102.011
2239.71	100.833
2241.64	99.6684
2243.57	99.2905
2245.5	99.4751
2247.43	99.7774
2249.36	100.176
2251.29	100.683
2253.22	100.904
2255.15	100.475
2257.07	99.6423
2259	98.9829
2260.93	98.764
2262.86	98.8566
2264.79	99.066
2266.72	99.3285
2268.65	99.7142
2270.58	100.38
2272.51	101.376
2274.44	102.383
2276.37	102.843
2278.29	102.516
2280.22	101.708
2282.15	100.835
2284.08	100.046
2286.01	99.3663
2287.94	98.9282
2289.87	98.8593
2291.8	99.0485
2293.73	99.2208
2295.66	99.2352
2297.59	99.2167
2299.52	99.4231
2301.44	100.021
2303.37	100.877
2305.3	101.503
2307.23	101.393
2309.16	100.63
2311.09	99.9636
2313.02	100.062
2314.95	100.772
2316.88	101.293
2318.81	101.057
2320.74	100.277
2322.66	99.6193
2324.59	99.5244
2326.52	99.9499
2328.45	100.548
2330.38	100.894
2332.31	100.706
2334.24	100.095
2336.17	99.569
2338.1	99.5653
2340.03	100
2341.96	100.363
2343.89	100.313
2345.81	100.077
2347.74	100.003
2349.67	100.111
2351.6	100.169
2353.53	99.9943
2355.46	99.7489
2357.39	99.7934
2359.32	100.077
2361.25	100.159
2363.18	99.9034
2365.11	99.7017
2367.03	99.8694
2368.96	100.218
2370.89	100.383
2372.82	100.292
2374.75	100.146
2376.68	100.103
2378.61	100.142
2380.54	100.17
2382.47	100.127
2384.4	100.009
2386.33	99.8489
2388.26	99.6957
2390.18	99.5873
2392.11	99.5402
2394.04	99.5669
2395.97	99.6757
2397.9	99.8338
2399.83	99.9619
2401.76	100.006
2403.69	99.9933
2405.62	99.9898
2407.55	100.016
2409.48	100.051
2411.4	100.094
2413.33	100.156
2415.26	100.217
2417.19	100.228
2419.12	100.175
2421.05	100.101
2422.98	100.055
2424.91	100.06
2426.84	100.127
2428.77	100.242
2430.7	100.345
2432.62	100.37
2434.55	100.324
2436.48	100.272
2438.41	100.245
2440.34	100.213
2442.27	100.17
2444.2	100.159
2446.13	100.202
2448.06	100.244
2449.99	100.24
2451.92	100.223
2453.85	100.24
2455.77	100.261
2457.7	100.22
2459.63	100.129
2461.56	100.069
2463.49	100.075
2465.42	100.085
2467.35	100.037
2469.28	99.9489
2471.21	99.8887
2473.14	99.8878
2475.07	99.9174
2476.99	99.924
2478.92	99.8782
2480.85	99.805
2482.78	99.7739
2484.71	99.8413
2486.64	99.994
2488.57	100.159
2490.5	100.27
2492.43	100.308
2494.36	100.286
2496.29	100.223
2498.22	100.141
2500.14	100.06
2502.07	99.9863
2504	99.9268
2505.93	99.9082
2507.86	99.953
2509.79	100.029
2511.72	100.064
2513.65	100.031
2515.58	99.9948
2517.51	100.029
2519.44	100.121
2521.36	100.184
2523.29	100.152
2525.22	100.057
2527.15	99.9868
2529.08	100.003
2531.01	100.088
2532.94	100.165
2534.87	100.172
2536.8	100.123
2538.73	100.08
2540.66	100.076
2542.58	100.089
2544.51	100.084
2546.44	100.068
2548.37	100.068
2550.3	100.086
2552.23	100.103
2554.16	100.108
2556.09	100.112
2558.02	100.116
2559.95	100.116
2561.88	100.123
2563.81	100.145
2565.73	100.168
2567.66	100.153
2569.59	100.093
2571.52	100.019
2573.45	99.9651
2575.38	99.9266
2577.31	99.8794
2579.24	99.824
2581.17	99.7938
2583.1	99.8241
2585.03	99.921
2586.95	100.052
2588.88	100.159
2590.81	100.19
2592.74	100.132
2594.67	100.018
2596.6	99.9091
2598.53	99.8568
2600.46	99.8852
2602.39	99.9764
2604.32	100.073
2606.25	100.107
2608.18	100.055
2610.1	99.9557
2612.03	99.8723
2613.96	99.8353
2615.89	99.8379
2617.82	99.8656
2619.75	99.9116
2621.68	99.963
2623.61	99.999
2625.54	100.013
2627.47	100.022
2629.4	100.043
2631.32	100.064
2633.25	100.061
2635.18	100.037
2637.11	100.028
2639.04	100.07
2640.97	100.154
2642.9	100.228
2644.83	100.227
2646.76	100.141
2648.69	100.023
2650.62	99.9397
2652.54	99.9129
2654.47	99.9125
2656.4	99.9134
2658.33	99.9231
2660.26	99.9437
2662.19	99.9421
2664.12	99.8928
2666.05	99.8308
2667.98	99.8205
2669.91	99.8781
2671.84	99.9634
2673.77	100.046
2675.69	100.131
2677.62	100.214
2679.55	100.249
2681.48	100.205
2683.41	100.121
2685.34	100.063
2687.27	100.043
2689.2	100.025
2691.13	99.9853
2693.06	99.9473
2694.99	99.9293
2696.91	99.9132
2698.84	99.8749
2700.77	99.8299
2702.7	99.8206
2704.63	99.8633
2706.56	99.9215
2708.49	99.9392
2710.42	99.8955
2712.35	99.827
2714.28	99.7946
2716.21	99.83
2718.14	99.9074
2720.06	99.9663
2721.99	99.9614
2723.92	99.8987
2725.85	99.8304
2727.78	99.8104
2729.71	99.8458
2731.64	99.8908
2733.57	99.896
2735.5	99.8649
2737.43	99.8511
2739.36	99.8964
2741.28	99.9835
2743.21	100.052
2745.14	100.055
2747.07	99.9859
2749	99.8783
2750.93	99.7826
2752.86	99.7505
2754.79	99.8078
2756.72	99.9266
2758.65	100.034
2760.58	100.065
2762.51	100.019
2764.43	99.9556
2766.36	99.9307
2768.29	99.9414
2770.22	99.9359
2772.15	99.8831
2774.08	99.8165
2776.01	99.8029
2777.94	99.8719
2779.87	99.9864
2781.8	100.075
2783.73	100.088
2785.65	100.031
2787.58	99.9549
2789.51	99.9123
2791.44	99.9137
2793.37	99.9254
2795.3	99.9165
2797.23	99.8981
2799.16	99.9019
2801.09	99.93
2803.02	99.9486
2804.95	99.931
2806.87	99.8877
2808.8	99.8516
2810.73	99.8522
2812.66	99.9001
2814.59	99.9761
2816.52	100.035
2818.45	100.043
2820.38	100.018
2822.31	100.002
2824.24	99.9948
2826.17	99.9561
2828.1	99.8768
2830.02	99.8159
2831.95	99.8294
2833.88	99.894
2835.81	99.9418
2837.74	99.9534
2839.67	99.9686
2841.6	100.007
2843.53	100.029
2845.46	99.9984
2847.39	99.9364
2849.32	99.8941
2851.24	99.8797
2853.17	99.8593
2855.1	99.8224
2857.03	99.8073
2858.96	99.8447
2860.89	99.903
2862.82	99.9205
2864.75	99.8867
2866.68	99.8593
2868.61	99.8878
2870.54	99.9476
2872.47	99.9739
2874.39	99.9447
2876.32	99.8964
2878.25	99.8662
2880.18	99.8585
2882.11	99.8715
2884.04	99.9092
2885.97	99.9474
2887.9	99.931
2889.83	99.846
2891.76	99.7641
2893.69	99.7682
2895.61	99.8468
2897.54	99.9095
2899.47	99.9003
2901.4	99.8489
2903.33	99.8047
2905.26	99.77
2907.19	99.7258
2909.12	99.6863
2911.05	99.6905
2912.98	99.7502
2914.91	99.83
2916.83	99.8773
2918.76	99.8679
2920.69	99.8318
2922.62	99.8352
2924.55	99.9179
2926.48	100.038
2928.41	100.1
2930.34	100.055
2932.27	99.9528
2934.2	99.8784
2936.13	99.8708
2938.06	99.9125
2939.98	99.9721
2941.91	100.018
2943.84	100.01
2945.77	99.9311
2947.7	99.8234
2949.63	99.767
2951.56	99.7949
2953.49	99.8597
2955.42	99.8957
2957.35	99.8898
2959.28	99.8687
2961.2	99.8411
2963.13	99.787
2965.06	99.7086
2966.99	99.6577
2968.92	99.6925
2970.85	99.8107
2972.78	99.9399
2974.71	99.9982
2976.64	99.9647
2978.57	99.8908
2980.5	99.8462
2982.43	99.8597
2984.35	99.9099
2986.28	99.9617
2988.21	100.002
2990.14	100.034
2992.07	100.051
2994	100.027
2995.93	99.9494
2997.86	99.859
2999.79	99.8318
3001.72	99.9011
3003.65	100.006
3005.57	100.043
3007.5	99.9765
3009.43	99.876
3011.36	99.832
3013.29	99.8584
3015.22	99.8949
3017.15	99.8869
3019.08	99.8329
3021.01	99.7644
3022.94	99.7164
3024.87	99.719
3026.79	99.7862
3028.72	99.8956
3030.65	99.9971
3032.58	100.055
3034.51	100.068
3036.44	100.051
3038.37	100.013
3040.3	99.9731
3042.23	99.9602
3044.16	99.977
3046.09	99.9819
3048.02	99.9387
3049.94	99.8773
3051.87	99.8682
3053.8	99.9381
3055.73	100.04
3057.66	100.111
3059.59	100.134
3061.52	100.125
3063.45	100.092
3065.38	100.031
3067.31	99.9508
3069.24	99.8738
3071.16	99.8117
3073.09	99.7664
3075.02	99.7492
3076.95	99.7784
3078.88	99.8514
3080.81	99.9332
3082.74	99.9827
3084.67	99.9896
3086.6	99.9759
3088.53	99.9648
3090.46	99.952
3092.39	99.9159
3094.31	99.8595
3096.24	99.8286
3098.17	99.8672
3100.1	99.9536
3102.03	100.01
3103.96	99.9875
3105.89	99.9175
3107.82	99.8594
3109.75	99.8279
3111.68	99.8015
3113.61	99.78
3115.53	99.7858
3117.46	99.8137
3119.39	99.8272
3121.32	99.8153
3123.25	99.8051
3125.18	99.8058
3127.11	99.7871
3129.04	99.7458
3130.97	99.7446
3132.9	99.8367
3134.83	99.9779
3136.75	100.067
3138.68	100.066
3140.61	100.028
3142.54	100.005
3144.47	99.9828
3146.4	99.9271
3148.33	99.8459
3150.26	99.7788
3152.19	99.7419
3154.12	99.7164
3156.05	99.6865
3157.98	99.6637
3159.9	99.6677
3161.83	99.6928
3163.76	99.7025
3165.69	99.663
3167.62	99.583
3169.55	99.5156
3171.48	99.5121
3173.41	99.5814
3175.34	99.696
3177.27	99.8177
3179.2	99.8983
3181.12	99.882
3183.05	99.7547
3184.98	99.5936
3186.91	99.5247
3188.84	99.6021
3190.77	99.7554
3192.7	99.8809
3194.63	99.9539
3196.56	100.02
3198.49	100.096
3200.42	100.135
3202.35	100.101
3204.27	100.03
3206.2	99.9882
3208.13	99.9835
3210.06	99.9664
3211.99	99.8992
3213.92	99.8069
3215.85	99.751
3217.78	99.7702
3219.71	99.8539
3221.64	99.9566
3223.57	100.033
3225.49	100.068
3227.42	100.074
3229.35	100.074
3231.28	100.075
3233.21	100.084
3235.14	100.113
3237.07	100.152
3239	100.131
3240.93	99.9673
3242.86	99.6862
3244.79	99.4545
3246.72	99.435
3248.64	99.6071
3250.57	99.7864
3252.5	99.8284
3254.43	99.7646
3256.36	99.7175
3258.29	99.7392
3260.22	99.7885
3262.15	99.8318
3264.08	99.8857
3266.01	99.9527
3267.94	99.9821
3269.86	99.935
3271.79	99.8525
3273.72	99.8121
3275.65	99.8245
3277.58	99.8174
3279.51	99.7371
3281.44	99.6255
3283.37	99.5681
3285.3	99.5868
3287.23	99.6259
3289.16	99.6424
3291.08	99.6656
3293.01	99.7362
3294.94	99.8232
3296.87	99.8497
3298.8	99.7934
3300.73	99.7137
3302.66	99.6768
3304.59	99.6932
3306.52	99.7365
3308.45	99.7786
3310.38	99.7915
3312.31	99.7591
3314.23	99.7181
3316.16	99.742
3318.09	99.8427
3320.02	99.9247
3321.95	99.8929
3323.88	99.7827
3325.81	99.7185
3327.74	99.7476
3329.67	99.7853
3331.6	99.745
3333.53	99.6604
3335.45	99.6364
3337.38	99.7143
3339.31	99.837
3341.24	99.9353
3343.17	99.9925
3345.1	100.016
3347.03	99.9915
3348.96	99.9027
3350.89	99.7849
3352.82	99.7146
3354.75	99.7322
3356.68	99.796
3358.6	99.8323
3360.53	99.819
3362.46	99.7944
3364.39	99.7897
3366.32	99.7906
3368.25	99.7838
3370.18	99.804
3372.11	99.8923
3374.04	100.025
3375.97	100.13
3377.9	100.177
3379.82	100.196
3381.75	100.203
3383.68	100.171
3385.61	100.105
3387.54	100.063
3389.47	100.062
3391.4	100.019
3393.33	99.8678
3395.26	99.6896
3397.19	99.6388
3399.12	99.7397
3401.04	99.8518
3402.97	99.844
3404.9	99.739
3406.83	99.6629
3408.76	99.7075
3410.69	99.8675
3412.62	100.063
3414.55	100.19
3416.48	100.179
3418.41	100.058
3420.34	99.94
3422.27	99.9095
3424.19	99.9428
3426.12	99.9782
3428.05	100.015
3429.98	100.07
3431.91	100.081
3433.84	99.9697
3435.77	99.7961
3437.7	99.7342
3439.63	99.8539
3441.56	100.016
3443.49	100.049
3445.41	99.9516
3447.34	99.8513
3449.27	99.8174
3451.2	99.8264
3453.13	99.8642
3455.06	99.9368
3456.99	99.9922
3458.92	99.9517
3460.85	99.8508
3462.78	99.8399
3464.71	99.9826
3466.64	100.142
3468.56	100.151
3470.49	100.038
3472.42	99.9911
3474.35	100.108
3476.28	100.28
3478.21	100.348
3480.14	100.309
3482.07	100.308
3484	100.42
3485.93	100.528
3487.86	100.465
3489.78	100.229
3491.71	99.9688
3493.64	99.7878
3495.57	99.6535
3497.5	99.5439
3499.43	99.5654
3501.36	99.8096
3503.29	100.143
3505.22	100.31
3507.15	100.269
3509.08	100.213
3511	100.26
3512.93	100.281
3514.86	100.126
3516.79	99.8645
3518.72	99.7056
3520.65	99.744
3522.58	99.8898
3524.51	100.008
3526.44	100.046
3528.37	100.017
3530.3	99.9496
3532.23	99.8738
3534.15	99.803
3536.08	99.7313
3538.01	99.6715
3539.94	99.6666
3541.87	99.7194
3543.8	99.7583
3545.73	99.749
3547.66	99.8042
3549.59	100.025
3551.52	100.298
3553.45	100.422
3555.37	100.418
3557.3	100.54
3559.23	100.925
3561.16	101.407
3563.09	101.723
3565.02	101.732
3566.95	101.395
3568.88	100.702
3570.81	99.8147
3572.74	99.1115
3574.67	98.9789
3576.6	99.4238
3578.52	99.8252
3580.45	99.5954
3582.38	98.9709
3584.31	98.717
3586.24	99.1885
3588.17	99.6315
3590.1	99.2269
3592.03	98.4287
3593.96	98.2102
3595.89	98.8167
3597.82	99.4311
3599.74	99.2795
3601.67	98.7685
3603.6	98.8642
3605.53	99.8756
3607.46	100.994
3609.39	101.025
3611.32	100.082
3613.25	99.6651
3615.18	100.708
3617.11	102.464
3619.04	103.056
3620.97	101.908
3622.89	100.531
3624.82	100.361
3626.75	101.781
3628.68	103.791
3630.61	104.522
3632.54	103.774
3634.47	102.495
3636.4	101.197
3638.33	100.34
3640.26	100.493
3642.19	101.685
3644.11	103.252
3646.04	104.158
3647.97	103.337
3649.9	101.119
3651.83	99.3808
3653.76	99.0196
3655.69	99.7769
3657.62	100.727
3659.55	100.743
3661.48	99.7966
3663.41	99.0414
3665.33	99.4221
3667.26	100.654
3669.19	101.387
3671.12	100.975
3673.05	100.431
3674.98	100.677
3676.91	101.318
3678.84	101.782
3680.77	102.063
3682.7	102.025
3684.63	101.289
3686.56	99.9884
3688.48	99.3004
3690.41	99.9559
3692.34	100.785
3694.27	100.913
3696.2	100.912
3698.13	101.533
3700.06	102.548
3701.99	102.93
3703.92	102.511
3705.85	102.122
3707.78	102.161
3709.7	101.954
3711.63	100.728
3713.56	99.2171
3715.49	98.5331
3717.42	98.8973
3719.35	99.9407
3721.28	101.055
3723.21	101.661
3725.14	101.598
3727.07	101.187
3729	100.811
3730.93	100.658
3732.85	100.747
3734.78	100.933
3736.71	101.078
3738.64	101.197
3740.57	101.222
3742.5	100.952
3744.43	100.434
3746.36	100.261
3748.29	100.822
3750.22	101.494
3752.15	101.357
3754.07	100.56
3756	99.9503
3757.93	99.9853
3759.86	100.498
3761.79	100.995
3763.72	101.193
3765.65	101.108
3767.58	100.786
3769.51	100.308
3771.44	99.9332
3773.37	99.8863
3775.29	100.163
3777.22	100.564
3779.15	100.805
3781.08	100.749
3783.01	100.532
3784.94	100.377
3786.87	100.393
3788.8	100.545
3790.73	100.719
3792.66	100.818
3794.59	100.796
3796.52	100.674
3798.44	100.533
3800.37	100.492
3802.3	100.581
3804.23	100.655
3806.16	100.524
3808.09	100.167
3810.02	99.7547
3811.95	99.5069
3813.88	99.6002
3815.81	100.078
3817.74	100.696
3819.66	101.042
3821.59	101.075
3823.52	101.177
3825.45	101.563
3827.38	102.031
3829.31	102.194
3831.24	101.821
3833.17	101.068
3835.1	100.386
3837.03	100.167
3838.96	100.361
3840.89	100.477
3842.81	100.172
3844.74	99.6367
3846.67	99.29
3848.6	99.408
3850.53	99.9655
3852.46	100.453
3854.39	100.352
3856.32	100.153
3858.25	100.304
3860.18	100.607
3862.11	100.685
3864.03	100.484
3865.96	100.471
3867.89	100.965
3869.82	101.586
3871.75	101.65
3873.68	101.112
3875.61	100.563
3877.54	100.417
3879.47	100.679
3881.4	101.082
3883.33	101.34
3885.25	101.404
3887.18	101.367
3889.11	101.231
3891.04	100.94
3892.97	100.569
3894.9	100.332
3896.83	100.399
3898.76	100.772
3900.69	101.188
3902.62	101.16
3904.55	100.545
3906.48	99.79
3908.4	99.366
3910.33	99.3916
3912.26	99.5967
3914.19	99.5178
3916.12	99.0058
3918.05	98.5871
3919.98	98.8919
3921.91	99.8076
3923.84	100.6
3925.77	100.754
3927.7	100.459
3929.62	100.246
3931.55	100.397
3933.48	100.754
3935.41	100.969
3937.34	100.817
3939.27	100.266
3941.2	99.4972
3943.13	98.8677
3945.06	98.6072
3946.99	98.6446
3948.92	98.8307
3950.85	99.1386
3952.77	99.5442
3954.7	99.877
3956.63	99.9674
3958.56	99.8932
3960.49	99.9086
3962.42	100.043
3964.35	99.9758
3966.28	99.5184
3968.21	99.0431
3970.14	99.1834
3972.07	100.071
3973.99	101.055
3975.92	101.369
3977.85	100.967
3979.78	100.44
3981.71	100.204
3983.64	100.108
3985.57	99.8442
3987.5	99.4452
3989.43	99.19
3991.36	99.1976
3993.29	99.3439
3995.22	99.491
3997.14	99.5961
3999.07	99.6511
4001	99.7201
4002.93	99.9846
4004.86	100.534
4006.79	101.123
4008.72	101.358
4010.65	101.163
4012.58	100.795
4014.51	100.388
4016.44	99.8251
4018.36	99.1213
4020.29	98.5979
4022.22	98.4784
4024.15	98.585
4026.08	98.649
4028.01	98.7096
4029.94	98.9446
4031.87	99.2581
4033.8	99.3691
4035.73	99.2763
4037.66	99.3164
4039.58	99.6838
4041.51	100.137
4043.44	100.292
4045.37	100.077
4047.3	99.7752
4049.23	99.6854
4051.16	99.8562
4053.09	100.108
4055.02	100.221
4056.95	100.118
4058.88	99.9157
4060.81	99.7924
4062.73	99.8063
4064.66	99.8659
4066.59	99.8652
4068.52	99.8052
4070.45	99.7736
4072.38	99.8274
4074.31	99.9115
4076.24	99.8978
4078.17	99.7278
4080.1	99.5188
4082.03	99.48
4083.95	99.6918
4085.88	99.987
4087.81	100.083
4089.74	99.8537
4091.67	99.4708
4093.6	99.2622
4095.53	99.3923
4097.46	99.6979
4099.39	99.8786
4101.32	99.8651
4103.25	99.8927
4105.18	100.121
4107.1	100.326
4109.03	100.178
4110.96	99.7671
4112.89	99.5505
4114.82	99.7393
4116.75	100.004
4118.68	99.9387
4120.61	99.6092
4122.54	99.4216
4124.47	99.5945
4126.4	99.9597
4128.32	100.235
4130.25	100.307
4132.18	100.224
4134.11	100.064
4136.04	99.8676
4137.97	99.6296
4139.9	99.3484
4141.83	99.122
4143.76	99.1156
4145.69	99.3504
4147.62	99.597
4149.54	99.6129
4151.47	99.4401
4153.4	99.3115
4155.33	99.2806
4157.26	99.1359
4159.19	98.758
4161.12	98.3968
4163.05	98.4327
4164.98	98.8834
4166.91	99.285
4168.84	99.1626
4170.77	98.5653
4172.69	98.0252
4174.62	97.9791
4176.55	98.3519
4178.48	98.7601
4180.41	98.9866
4182.34	99.1157
4184.27	99.2803
4186.2	99.4827
4188.13	99.682
4190.06	99.8639
4191.99	99.9826
4193.91	100.006
4195.84	100.058
4197.77	100.298
4199.7	100.599
4201.63	100.577
4203.56	100.101
4205.49	99.5703
4207.42	99.4821
4209.35	99.838
4211.28	100.196
4213.21	100.224
4215.14	99.9745
4217.06	99.6966
4218.99	99.6003
4220.92	99.7638
4222.85	100.065
4224.78	100.211
4226.71	100.021
4228.64	99.6851
4230.57	99.5445
4232.5	99.6268
4234.43	99.6024
4236.36	99.2431
4238.28	98.7825
4240.21	98.7172
4242.14	99.2906
4244.07	100.191
4246	100.74
4247.93	100.497
4249.86	99.7465
4251.79	99.2536
4253.72	99.425
4255.65	99.8688
4257.58	99.9586
4259.5	99.6917
4261.43	99.636
4263.36	100.072
4265.29	100.589
4267.22	100.662
4269.15	100.349
4271.08	100.109
4273.01	100.149
4274.94	100.252
4276.87	100.178
4278.8	99.9896
4280.73	99.933
4282.65	100.159
4284.58	100.61
4286.51	101.058
4288.44	101.22
4290.37	100.957
4292.3	100.423
4294.23	99.963
4296.16	99.8146
4298.09	99.905
4300.02	99.9763
4301.95	99.8985
4303.87	99.7767
4305.8	99.7327
4307.73	99.7219
4309.66	99.6897
4311.59	99.7946
4313.52	100.245
4315.45	100.899
4317.38	101.27
4319.31	101.059
4321.24	100.492
4323.17	99.9976
4325.1	99.6965
4327.02	99.4142
4328.95	99.0457
4330.88	98.6741
4332.81	98.4197
4334.74	98.3975
4336.67	98.7517
4338.6	99.4763
4340.53	100.227
4342.46	100.579
4344.39	100.517
4346.32	100.39
4348.24	100.339
4350.17	100.144
4352.1	99.7433
4354.03	99.5145
4355.96	99.7765
4357.89	100.307
4359.82	100.641
4361.75	100.678
4363.68	100.659
4365.61	100.649
4367.54	100.462
4369.46	100.115
4371.39	99.9249
4373.32	100.005
4375.25	100.02
4377.18	99.6886
4379.11	99.287
4381.04	99.336
4382.97	99.8715
4384.9	100.352
4386.83	100.312
4388.76	99.86
4390.69	99.4684
4392.61	99.5049
4394.54	100.015
4396.47	100.733
4398.4	101.204
4400.33	101.074
4402.26	100.47
4404.19	99.9556
4406.12	99.9494
4408.05	100.239
4409.98	100.259
4411.91	99.8055
4413.83	99.2189
4415.76	98.8755
4417.69	98.8012
4419.62	98.8573
4421.55	99.033
4423.48	99.3445
4425.41	99.622
4427.34	99.6635
4429.27	99.5574
4431.2	99.612
4433.13	99.9524
4435.06	100.352
4436.98	100.49
4438.91	100.273
4440.84	99.8761
4442.77	99.539
4444.7	99.3961
4446.63	99.4315
4448.56	99.5255
4450.49	99.5488
4452.42	99.4683
4454.35	99.4018
4456.28	99.5548
4458.2	100.036
4460.13	100.692
4462.06	101.179
4463.99	101.301
4465.92	101.223
4467.85	101.188
4469.78	101.093
4471.71	100.589
4473.64	99.6615
4475.57	98.843
4477.5	98.6426
4479.43	98.9806
4481.35	99.3601
4483.28	99.5217
4485.21	99.6737
4487.14	100.007
4489.07	100.29
4491	100.166
4492.93	99.7017
4494.86	99.3983
4496.79	99.6199
4498.72	100.162
4500.65	100.457
4502.57	100.162
4504.5	99.496
4506.43	99.0024
4508.36	99.0462
4510.29	99.5695
4512.22	100.245
4514.15	100.761
4516.08	100.981
4518.01	100.952
4519.94	100.827
4521.87	100.747
4523.79	100.747
4525.72	100.781
4527.65	100.798
4529.58	100.75
4531.51	100.552
4533.44	100.153
4535.37	99.7079
4537.3	99.5356
4539.23	99.7683
4541.16	100.12
4543.09	100.117
4545.02	99.6052
4546.94	98.9049
4548.87	98.4633
4550.8	98.4763
4552.73	98.847
4554.66	99.3659
4556.59	99.8741
4558.52	100.31
4560.45	100.657
4562.38	100.839
4564.31	100.715
4566.24	100.27
4568.16	99.7967
4570.09	99.7298
4572.02	100.181
4573.95	100.751
4575.88	100.945
4577.81	100.736
4579.74	100.538
4581.67	100.612
4583.6	100.712
4585.53	100.46
4587.46	99.9207
4589.39	99.6041
4591.31	99.885
4593.24	100.571
4595.17	101.117
4597.1	101.198
4599.03	100.971
4600.96	100.77
4602.89	100.662
4604.82	100.443
4606.75	100.077
4608.68	99.9346
4610.61	100.413
4612.53	101.358
4614.46	102.055
4616.39	101.934
4618.32	101.13
4620.25	100.191
4622.18	99.425
4624.11	98.847
4626.04	98.5619
4627.97	98.7711
4629.9	99.3349
4631.83	99.7202
4633.75	99.6177
4635.68	99.3338
4637.61	99.3074
4639.54	99.4948
4641.47	99.5677
4643.4	99.5593
4645.33	99.8481
4647.26	100.488
4649.19	100.984
4651.12	100.92
4653.05	100.511
4654.98	100.245
4656.9	100.219
4658.83	100.128
4660.76	99.7481
4662.69	99.1859
4664.62	98.6884
4666.55	98.4803
4668.48	98.7713
4670.41	99.6384
4672.34	100.768
4674.27	101.507
4676.2	101.424
4678.12	100.738
4680.05	100.011
4681.98	99.5254
4683.91	99.1238
4685.84	98.5764
4687.77	97.9157
4689.7	97.3836
4691.63	97.208
4693.56	97.5146
4695.49	98.2878
4697.42	99.2379
4699.35	99.8388
4701.27	99.7875
4703.2	99.4201
4705.13	99.4036
4707.06	99.9305
4708.99	100.396
4710.92	100.079
4712.85	99.0515
4714.78	98.1566
4716.71	98.1302
4718.64	98.8976
4720.57	99.6534
4722.49	99.646
4724.42	98.9593
4726.35	98.4316
4728.28	98.7618
4730.21	99.721
4732.14	100.357
4734.07	100.118
4736	99.4909
4737.93	99.2278
4739.86	99.3072
4741.79	99.1308
4743.71	98.5821
4745.64	98.2635
4747.57	98.6061
4749.5	99.3368
4751.43	100.009
4753.36	100.571
4755.29	101.007
4757.22	100.873
4759.15	99.9037
4761.08	98.8405
4763.01	98.828
4764.94	99.9717
4766.86	101.112
4768.79	101.221
4770.72	100.577
4772.65	100.093
4774.58	99.9986
4776.51	99.8064
4778.44	99.2623
4780.37	98.6958
4782.3	98.4144
4784.23	98.2703
4786.16	98.0205
4788.08	97.7735
4790.01	97.8241
4791.94	98.243
4793.87	98.8488
4795.8	99.4573
4797.73	99.9714
4799.66	100.288
4801.59	100.282
4803.52	99.9134
4805.45	99.3202
4807.38	98.8619
4809.31	99.023
4811.23	100.029
4813.16	101.401
4815.09	102.121
4817.02	101.555
4818.95	100.121
4820.88	98.8273
4822.81	98.3709
4824.74	98.7957
4826.67	99.7786
4828.6	100.856
4830.53	101.418
4832.45	101.031
4834.38	100.047
4836.31	99.5007
4838.24	100.08
4840.17	101.334
4842.1	102.114
4844.03	101.816
4845.96	100.896
4847.89	100.119
4849.82	99.7463
4851.75	99.6345
4853.68	99.7404
4855.6	100.168
4857.53	100.823
4859.46	101.35
4861.39	101.489
4863.32	101.309
4865.25	101.035
4867.18	100.84
4869.11	100.812
4871.04	100.917
4872.97	100.91
4874.9	100.521
4876.82	99.8865
4878.75	99.5772
4880.68	99.9797
4882.61	100.769
4884.54	101.248
4886.47	101.129
4888.4	100.713
4890.33	100.371
4892.26	100.207
4894.19	100.224
4896.12	100.423
4898.04	100.646
4899.97	100.661
4901.9	100.551
4903.83	100.669
4905.76	101.057
4907.69	101.267
4909.62	101.051
4911.55	100.833
4913.48	101.047
4915.41	101.341
4917.34	101.042
4919.27	100.286
4921.19	99.9894
4923.12	100.54
4925.05	101.137
4926.98	100.774
4928.91	99.572
4930.84	98.6143
4932.77	98.6382
4934.7	99.3969
4936.63	100.231
4938.56	100.804
4940.49	101.069
4942.41	100.853
4944.34	99.9831
4946.27	98.8235
4948.2	98.2123
4950.13	98.595
4952.06	99.4129
4953.99	99.6581
4955.92	99.106
4957.85	98.6062
4959.78	98.9681
4961.71	99.9918
4963.64	100.874
4965.56	101.25
4967.49	101.368
4969.42	101.39
4971.35	101.101
4973.28	100.456
4975.21	99.913
4977.14	99.9277
4979.07	100.349
4981	100.594
4982.93	100.376
4984.86	99.9824
4986.78	99.8027
4988.71	99.8542
4990.64	99.8667
4992.57	99.6872
4994.5	99.4183
4996.43	99.1611
4998.36	98.8559
