##TITLE=4 film interferogram
##$NOTE=11.03.2023 11:45:3 ^0 x10 v:1
##$ITAB=-1,-1
##FIRSTX=0
##DELTAX=1
##NPOINTS=6490
##XUNITS=1/CM
##YUNITS=ABSORBANCE
0	-2.0625
1	-8.0625
2	-9.0625
3	-5.0625
4	-7.0625
5	-3.0625
6	-0.0625
7	-1.0625
8	-1.0625
9	-3.0625
10	-5.0625
11	-3.0625
12	-6.0625
13	-5.0625
14	-2.0625
15	3.9375
16	7.9375
17	12.9375
18	13.9375
19	10.9375
20	6.9375
21	2.9375
22	1.9375
23	-3.0625
24	-13.0625
25	-22.0625
26	-28.0625
27	-27.0625
28	-26.0625
29	-21.0625
30	-12.0625
31	2.9375
32	13.9375
33	18.9375
34	26.9375
35	28.9375
36	27.9375
37	25.9375
38	18.9375
39	11.9375
40	4.9375
41	-5.0625
42	-12.0625
43	-19.0625
44	-18.0625
45	-19.0625
46	-25.0625
47	-20.0625
48	-16.0625
49	-5.0625
50	2.9375
51	11.9375
52	22.9375
53	28.9375
54	32.9375
55	30.9375
56	31.9375
57	28.9375
58	20.9375
59	8.9375
60	-7.0625
61	-21.0625
62	-38.0625
63	-50.0625
64	-60.0625
65	-63.0625
66	-60.0625
67	-52.0625
68	-38.0625
69	-19.0625
70	-0.0625
71	24.9375
72	42.9375
73	55.9375
74	64.9375
75	70.9375
76	66.9375
77	56.9375
78	38.9375
79	16.9375
80	-4.0625
81	-28.0625
82	-49.0625
83	-57.0625
84	-58.0625
85	-54.0625
86	-41.0625
87	-27.0625
88	-11.0625
89	4.9375
90	21.9375
91	33.9375
92	45.9375
93	49.9375
94	50.9375
95	45.9375
96	33.9375
97	19.9375
98	3.9375
99	-15.0625
100	-32.0625
101	-45.0625
102	-52.0625
103	-58.0625
104	-60.0625
105	-58.0625
106	-47.0625
107	-32.0625
108	-7.0625
109	18.9375
110	40.9375
111	58.9375
112	68.9375
113	69.9375
114	60.9375
115	46.9375
116	30.9375
117	5.9375
118	-14.0625
119	-36.0625
120	-51.0625
121	-59.0625
122	-64.0625
123	-62.0625
124	-48.0625
125	-32.0625
126	-7.0625
127	17.9375
128	36.9375
129	53.9375
130	65.9375
131	68.9375
132	62.9375
133	52.9375
134	38.9375
135	19.9375
136	-2.0625
137	-18.0625
138	-38.0625
139	-56.0625
140	-66.0625
141	-67.0625
142	-61.0625
143	-51.0625
144	-36.0625
145	-20.0625
146	-3.0625
147	10.9375
148	28.9375
149	37.9375
150	48.9375
151	55.9375
152	56.9375
153	47.9375
154	35.9375
155	15.9375
156	-0.0625
157	-21.0625
158	-34.0625
159	-48.0625
160	-55.0625
161	-54.0625
162	-45.0625
163	-36.0625
164	-18.0625
165	0.9375
166	20.9375
167	38.9375
168	49.9375
169	58.9375
170	59.9375
171	49.9375
172	34.9375
173	15.9375
174	-0.0625
175	-20.0625
176	-34.0625
177	-47.0625
178	-51.0625
179	-53.0625
180	-51.0625
181	-45.0625
182	-33.0625
183	-17.0625
184	-0.0625
185	13.9375
186	25.9375
187	36.9375
188	40.9375
189	45.9375
190	41.9375
191	39.9375
192	39.9375
193	29.9375
194	21.9375
195	5.9375
196	-9.0625
197	-23.0625
198	-34.0625
199	-40.0625
200	-41.0625
201	-38.0625
202	-33.0625
203	-29.0625
204	-19.0625
205	-6.0625
206	8.9375
207	25.9375
208	31.9375
209	35.9375
210	36.9375
211	28.9375
212	14.9375
213	4.9375
214	-5.0625
215	-12.0625
216	-15.0625
217	-15.0625
218	-16.0625
219	-10.0625
220	-10.0625
221	-11.0625
222	-7.0625
223	-3.0625
224	-2.0625
225	1.9375
226	0.9375
227	-1.0625
228	-5.0625
229	-3.0625
230	-7.0625
231	-6.0625
232	2.9375
233	7.9375
234	9.9375
235	14.9375
236	20.9375
237	20.9375
238	19.9375
239	17.9375
240	23.9375
241	22.9375
242	22.9375
243	16.9375
244	7.9375
245	-0.0625
246	-12.0625
247	-21.0625
248	-26.0625
249	-31.0625
250	-34.0625
251	-35.0625
252	-39.0625
253	-38.0625
254	-35.0625
255	-28.0625
256	-16.0625
257	-4.0625
258	9.9375
259	22.9375
260	34.9375
261	38.9375
262	39.9375
263	36.9375
264	28.9375
265	20.9375
266	7.9375
267	-5.0625
268	-15.0625
269	-22.0625
270	-30.0625
271	-27.0625
272	-17.0625
273	-5.0625
274	10.9375
275	23.9375
276	31.9375
277	34.9375
278	36.9375
279	33.9375
280	21.9375
281	9.9375
282	-5.0625
283	-18.0625
284	-27.0625
285	-33.0625
286	-42.0625
287	-47.0625
288	-47.0625
289	-48.0625
290	-35.0625
291	-20.0625
292	-8.0625
293	3.9375
294	14.9375
295	31.9375
296	49.9375
297	56.9375
298	63.9375
299	63.9375
300	59.9375
301	43.9375
302	22.9375
303	-3.0625
304	-28.0625
305	-51.0625
306	-70.0625
307	-80.0625
308	-84.0625
309	-80.0625
310	-68.0625
311	-54.0625
312	-30.0625
313	-0.0625
314	31.9375
315	57.9375
316	79.9375
317	96.9375
318	97.9375
319	89.9375
320	79.9375
321	58.9375
322	30.9375
323	4.9375
324	-22.0625
325	-47.0625
326	-71.0625
327	-84.0625
328	-86.0625
329	-85.0625
330	-66.0625
331	-46.0625
332	-29.0625
333	-4.0625
334	20.9375
335	34.9375
336	42.9375
337	50.9375
338	54.9375
339	54.9375
340	50.9375
341	40.9375
342	25.9375
343	5.9375
344	-13.0625
345	-37.0625
346	-53.0625
347	-61.0625
348	-67.0625
349	-64.0625
350	-52.0625
351	-36.0625
352	-15.0625
353	8.9375
354	30.9375
355	48.9375
356	60.9375
357	68.9375
358	66.9375
359	57.9375
360	40.9375
361	26.9375
362	9.9375
363	-9.0625
364	-19.0625
365	-22.0625
366	-28.0625
367	-32.0625
368	-33.0625
369	-32.0625
370	-32.0625
371	-29.0625
372	-25.0625
373	-19.0625
374	-15.0625
375	-4.0625
376	-2.0625
377	-0.0625
378	1.9375
379	6.9375
380	13.9375
381	17.9375
382	22.9375
383	25.9375
384	25.9375
385	28.9375
386	21.9375
387	16.9375
388	8.9375
389	4.9375
390	0.9375
391	-5.0625
392	-12.0625
393	-19.0625
394	-20.0625
395	-16.0625
396	-15.0625
397	-17.0625
398	-5.0625
399	0.9375
400	3.9375
401	9.9375
402	13.9375
403	12.9375
404	10.9375
405	12.9375
406	14.9375
407	11.9375
408	7.9375
409	0.9375
410	-9.0625
411	-21.0625
412	-36.0625
413	-47.0625
414	-52.0625
415	-54.0625
416	-49.0625
417	-37.0625
418	-17.0625
419	2.9375
420	19.9375
421	36.9375
422	55.9375
423	65.9375
424	73.9375
425	71.9375
426	62.9375
427	51.9375
428	31.9375
429	8.9375
430	-12.0625
431	-23.0625
432	-29.0625
433	-39.0625
434	-41.0625
435	-40.0625
436	-35.0625
437	-27.0625
438	-25.0625
439	-19.0625
440	-12.0625
441	-9.0625
442	-5.0625
443	-4.0625
444	-4.0625
445	-6.0625
446	-13.0625
447	-15.0625
448	-17.0625
449	-16.0625
450	-13.0625
451	-9.0625
452	-1.0625
453	4.9375
454	14.9375
455	21.9375
456	30.9375
457	44.9375
458	52.9375
459	56.9375
460	55.9375
461	51.9375
462	38.9375
463	20.9375
464	3.9375
465	-15.0625
466	-30.0625
467	-42.0625
468	-55.0625
469	-63.0625
470	-67.0625
471	-58.0625
472	-46.0625
473	-30.0625
474	-10.0625
475	10.9375
476	29.9375
477	43.9375
478	47.9375
479	43.9375
480	37.9375
481	26.9375
482	12.9375
483	-2.0625
484	-15.0625
485	-27.0625
486	-36.0625
487	-40.0625
488	-36.0625
489	-36.0625
490	-26.0625
491	-13.0625
492	-3.0625
493	16.9375
494	31.9375
495	39.9375
496	45.9375
497	46.9375
498	47.9375
499	41.9375
500	34.9375
501	29.9375
502	19.9375
503	4.9375
504	-12.0625
505	-33.0625
506	-47.0625
507	-56.0625
508	-65.0625
509	-66.0625
510	-57.0625
511	-45.0625
512	-31.0625
513	-18.0625
514	-1.0625
515	12.9375
516	26.9375
517	37.9375
518	48.9375
519	54.9375
520	58.9375
521	50.9375
522	38.9375
523	22.9375
524	8.9375
525	-4.0625
526	-13.0625
527	-23.0625
528	-21.0625
529	-20.0625
530	-25.0625
531	-26.0625
532	-24.0625
533	-24.0625
534	-22.0625
535	-20.0625
536	-11.0625
537	-1.0625
538	3.9375
539	12.9375
540	14.9375
541	18.9375
542	18.9375
543	17.9375
544	15.9375
545	12.9375
546	10.9375
547	0.9375
548	-9.0625
549	-19.0625
550	-29.0625
551	-34.0625
552	-29.0625
553	-16.0625
554	-5.0625
555	5.9375
556	14.9375
557	15.9375
558	15.9375
559	14.9375
560	15.9375
561	11.9375
562	14.9375
563	17.9375
564	18.9375
565	13.9375
566	9.9375
567	3.9375
568	-2.0625
569	-6.0625
570	-6.0625
571	-7.0625
572	-8.0625
573	-13.0625
574	-19.0625
575	-27.0625
576	-31.0625
577	-33.0625
578	-31.0625
579	-27.0625
580	-20.0625
581	-11.0625
582	-1.0625
583	3.9375
584	8.9375
585	13.9375
586	22.9375
587	30.9375
588	39.9375
589	43.9375
590	44.9375
591	42.9375
592	32.9375
593	19.9375
594	7.9375
595	-0.0625
596	-4.0625
597	-11.0625
598	-14.0625
599	-23.0625
600	-32.0625
601	-43.0625
602	-53.0625
603	-54.0625
604	-51.0625
605	-43.0625
606	-33.0625
607	-17.0625
608	-0.0625
609	11.9375
610	21.9375
611	29.9375
612	40.9375
613	42.9375
614	46.9375
615	43.9375
616	34.9375
617	25.9375
618	15.9375
619	8.9375
620	1.9375
621	-1.0625
622	-0.0625
623	3.9375
624	6.9375
625	2.9375
626	-2.0625
627	-10.0625
628	-20.0625
629	-26.0625
630	-31.0625
631	-34.0625
632	-37.0625
633	-35.0625
634	-30.0625
635	-25.0625
636	-22.0625
637	-18.0625
638	-12.0625
639	-5.0625
640	3.9375
641	16.9375
642	23.9375
643	29.9375
644	34.9375
645	34.9375
646	37.9375
647	39.9375
648	34.9375
649	33.9375
650	24.9375
651	17.9375
652	10.9375
653	1.9375
654	-5.0625
655	-12.0625
656	-21.0625
657	-22.0625
658	-27.0625
659	-25.0625
660	-22.0625
661	-15.0625
662	-13.0625
663	-11.0625
664	-9.0625
665	-7.0625
666	-7.0625
667	-7.0625
668	-9.0625
669	-13.0625
670	-15.0625
671	-17.0625
672	-20.0625
673	-19.0625
674	-16.0625
675	-9.0625
676	4.9375
677	16.9375
678	30.9375
679	41.9375
680	51.9375
681	53.9375
682	50.9375
683	45.9375
684	39.9375
685	30.9375
686	20.9375
687	4.9375
688	-11.0625
689	-26.0625
690	-36.0625
691	-46.0625
692	-49.0625
693	-51.0625
694	-44.0625
695	-44.0625
696	-38.0625
697	-35.0625
698	-27.0625
699	-16.0625
700	1.9375
701	18.9375
702	27.9375
703	39.9375
704	47.9375
705	49.9375
706	47.9375
707	40.9375
708	33.9375
709	20.9375
710	7.9375
711	-6.0625
712	-15.0625
713	-26.0625
714	-36.0625
715	-36.0625
716	-33.0625
717	-23.0625
718	-18.0625
719	-8.0625
720	1.9375
721	9.9375
722	16.9375
723	22.9375
724	28.9375
725	28.9375
726	28.9375
727	27.9375
728	20.9375
729	12.9375
730	4.9375
731	-11.0625
732	-27.0625
733	-38.0625
734	-50.0625
735	-54.0625
736	-58.0625
737	-52.0625
738	-41.0625
739	-37.0625
740	-26.0625
741	-9.0625
742	7.9375
743	25.9375
744	44.9375
745	56.9375
746	66.9375
747	73.9375
748	76.9375
749	73.9375
750	61.9375
751	43.9375
752	22.9375
753	1.9375
754	-22.0625
755	-39.0625
756	-51.0625
757	-54.0625
758	-53.0625
759	-47.0625
760	-44.0625
761	-38.0625
762	-31.0625
763	-20.0625
764	-18.0625
765	-14.0625
766	-7.0625
767	-8.0625
768	-7.0625
769	-7.0625
770	-2.0625
771	2.9375
772	8.9375
773	14.9375
774	21.9375
775	27.9375
776	31.9375
777	34.9375
778	39.9375
779	38.9375
780	36.9375
781	31.9375
782	26.9375
783	18.9375
784	8.9375
785	-1.0625
786	-16.0625
787	-27.0625
788	-37.0625
789	-43.0625
790	-45.0625
791	-49.0625
792	-43.0625
793	-35.0625
794	-26.0625
795	-15.0625
796	-2.0625
797	10.9375
798	19.9375
799	24.9375
800	29.9375
801	31.9375
802	22.9375
803	15.9375
804	7.9375
805	-3.0625
806	-6.0625
807	-8.0625
808	-14.0625
809	-11.0625
810	-6.0625
811	5.9375
812	14.9375
813	26.9375
814	36.9375
815	43.9375
816	42.9375
817	33.9375
818	21.9375
819	4.9375
820	-11.0625
821	-22.0625
822	-33.0625
823	-44.0625
824	-51.0625
825	-57.0625
826	-54.0625
827	-55.0625
828	-49.0625
829	-39.0625
830	-23.0625
831	-9.0625
832	2.9375
833	12.9375
834	21.9375
835	29.9375
836	34.9375
837	40.9375
838	41.9375
839	44.9375
840	44.9375
841	46.9375
842	41.9375
843	38.9375
844	30.9375
845	27.9375
846	17.9375
847	12.9375
848	3.9375
849	-4.0625
850	-13.0625
851	-20.0625
852	-28.0625
853	-39.0625
854	-50.0625
855	-54.0625
856	-55.0625
857	-57.0625
858	-57.0625
859	-53.0625
860	-46.0625
861	-37.0625
862	-26.0625
863	-12.0625
864	3.9375
865	21.9375
866	36.9375
867	47.9375
868	59.9375
869	61.9375
870	61.9375
871	58.9375
872	54.9375
873	47.9375
874	33.9375
875	20.9375
876	6.9375
877	-7.0625
878	-18.0625
879	-25.0625
880	-31.0625
881	-31.0625
882	-29.0625
883	-28.0625
884	-28.0625
885	-28.0625
886	-24.0625
887	-20.0625
888	-15.0625
889	-12.0625
890	-9.0625
891	-0.0625
892	4.9375
893	8.9375
894	12.9375
895	11.9375
896	12.9375
897	4.9375
898	2.9375
899	-3.0625
900	-11.0625
901	-21.0625
902	-25.0625
903	-27.0625
904	-25.0625
905	-14.0625
906	-2.0625
907	13.9375
908	26.9375
909	36.9375
910	49.9375
911	57.9375
912	61.9375
913	57.9375
914	54.9375
915	38.9375
916	29.9375
917	14.9375
918	-0.0625
919	-15.0625
920	-32.0625
921	-49.0625
922	-57.0625
923	-73.0625
924	-79.0625
925	-80.0625
926	-78.0625
927	-70.0625
928	-60.0625
929	-46.0625
930	-34.0625
931	-14.0625
932	4.9375
933	27.9375
934	49.9375
935	68.9375
936	84.9375
937	94.9375
938	90.9375
939	86.9375
940	66.9375
941	49.9375
942	28.9375
943	11.9375
944	-6.0625
945	-15.0625
946	-25.0625
947	-33.0625
948	-37.0625
949	-34.0625
950	-32.0625
951	-33.0625
952	-37.0625
953	-40.0625
954	-41.0625
955	-41.0625
956	-35.0625
957	-25.0625
958	-19.0625
959	-7.0625
960	6.9375
961	17.9375
962	25.9375
963	30.9375
964	25.9375
965	18.9375
966	8.9375
967	-1.0625
968	-2.0625
969	-0.0625
970	3.9375
971	8.9375
972	11.9375
973	16.9375
974	16.9375
975	13.9375
976	10.9375
977	6.9375
978	3.9375
979	-1.0625
980	-8.0625
981	-6.0625
982	-6.0625
983	-6.0625
984	-10.0625
985	-9.0625
986	-10.0625
987	-4.0625
988	-1.0625
989	2.9375
990	0.9375
991	-0.0625
992	-2.0625
993	-3.0625
994	-4.0625
995	-7.0625
996	-10.0625
997	-15.0625
998	-16.0625
999	-17.0625
1000	-9.0625
1001	0.9375
1002	10.9375
1003	22.9375
1004	34.9375
1005	41.9375
1006	40.9375
1007	34.9375
1008	22.9375
1009	5.9375
1010	-6.0625
1011	-16.0625
1012	-26.0625
1013	-30.0625
1014	-30.0625
1015	-33.0625
1016	-32.0625
1017	-38.0625
1018	-37.0625
1019	-38.0625
1020	-35.0625
1021	-28.0625
1022	-18.0625
1023	-1.0625
1024	17.9375
1025	30.9375
1026	47.9375
1027	62.9375
1028	73.9375
1029	77.9375
1030	75.9375
1031	63.9375
1032	47.9375
1033	21.9375
1034	-5.0625
1035	-34.0625
1036	-53.0625
1037	-68.0625
1038	-74.0625
1039	-69.0625
1040	-61.0625
1041	-49.0625
1042	-32.0625
1043	-13.0625
1044	0.9375
1045	12.9375
1046	22.9375
1047	29.9375
1048	34.9375
1049	32.9375
1050	27.9375
1051	19.9375
1052	10.9375
1053	-1.0625
1054	-3.0625
1055	-9.0625
1056	-16.0625
1057	-16.0625
1058	-19.0625
1059	-20.0625
1060	-27.0625
1061	-24.0625
1062	-22.0625
1063	-17.0625
1064	-8.0625
1065	13.9375
1066	30.9375
1067	45.9375
1068	56.9375
1069	62.9375
1070	63.9375
1071	57.9375
1072	41.9375
1073	26.9375
1074	8.9375
1075	-10.0625
1076	-27.0625
1077	-42.0625
1078	-54.0625
1079	-57.0625
1080	-51.0625
1081	-42.0625
1082	-36.0625
1083	-27.0625
1084	-22.0625
1085	-25.0625
1086	-33.0625
1087	-33.0625
1088	-29.0625
1089	-31.0625
1090	-22.0625
1091	-10.0625
1092	4.9375
1093	17.9375
1094	38.9375
1095	56.9375
1096	69.9375
1097	76.9375
1098	78.9375
1099	71.9375
1100	60.9375
1101	49.9375
1102	30.9375
1103	14.9375
1104	-3.0625
1105	-13.0625
1106	-21.0625
1107	-18.0625
1108	-20.0625
1109	-20.0625
1110	-19.0625
1111	-33.0625
1112	-46.0625
1113	-56.0625
1114	-65.0625
1115	-68.0625
1116	-60.0625
1117	-56.0625
1118	-41.0625
1119	-29.0625
1120	-15.0625
1121	0.9375
1122	10.9375
1123	17.9375
1124	26.9375
1125	27.9375
1126	27.9375
1127	27.9375
1128	20.9375
1129	20.9375
1130	26.9375
1131	31.9375
1132	38.9375
1133	47.9375
1134	58.9375
1135	65.9375
1136	66.9375
1137	59.9375
1138	46.9375
1139	26.9375
1140	3.9375
1141	-22.0625
1142	-43.0625
1143	-67.0625
1144	-81.0625
1145	-85.0625
1146	-81.0625
1147	-77.0625
1148	-61.0625
1149	-46.0625
1150	-33.0625
1151	-17.0625
1152	-8.0625
1153	-4.0625
1154	0.9375
1155	4.9375
1156	9.9375
1157	15.9375
1158	28.9375
1159	36.9375
1160	47.9375
1161	57.9375
1162	61.9375
1163	58.9375
1164	51.9375
1165	38.9375
1166	24.9375
1167	6.9375
1168	-9.0625
1169	-24.0625
1170	-34.0625
1171	-38.0625
1172	-37.0625
1173	-27.0625
1174	-18.0625
1175	-9.0625
1176	-2.0625
1177	4.9375
1178	3.9375
1179	7.9375
1180	7.9375
1181	2.9375
1182	-1.0625
1183	-9.0625
1184	-12.0625
1185	-21.0625
1186	-22.0625
1187	-21.0625
1188	-17.0625
1189	-12.0625
1190	1.9375
1191	10.9375
1192	19.9375
1193	19.9375
1194	15.9375
1195	4.9375
1196	-7.0625
1197	-21.0625
1198	-24.0625
1199	-21.0625
1200	-9.0625
1201	10.9375
1202	29.9375
1203	49.9375
1204	58.9375
1205	59.9375
1206	48.9375
1207	26.9375
1208	-0.0625
1209	-27.0625
1210	-49.0625
1211	-62.0625
1212	-60.0625
1213	-50.0625
1214	-37.0625
1215	-16.0625
1216	4.9375
1217	16.9375
1218	24.9375
1219	19.9375
1220	13.9375
1221	-1.0625
1222	-15.0625
1223	-19.0625
1224	-17.0625
1225	-8.0625
1226	10.9375
1227	29.9375
1228	39.9375
1229	47.9375
1230	45.9375
1231	30.9375
1232	10.9375
1233	-9.0625
1234	-25.0625
1235	-33.0625
1236	-31.0625
1237	-26.0625
1238	-14.0625
1239	-3.0625
1240	5.9375
1241	9.9375
1242	11.9375
1243	7.9375
1244	-4.0625
1245	-8.0625
1246	-15.0625
1247	-21.0625
1248	-25.0625
1249	-26.0625
1250	-24.0625
1251	-20.0625
1252	-18.0625
1253	-7.0625
1254	5.9375
1255	20.9375
1256	33.9375
1257	49.9375
1258	62.9375
1259	61.9375
1260	56.9375
1261	41.9375
1262	22.9375
1263	1.9375
1264	-20.0625
1265	-35.0625
1266	-43.0625
1267	-38.0625
1268	-33.0625
1269	-21.0625
1270	-13.0625
1271	-9.0625
1272	-4.0625
1273	-5.0625
1274	-10.0625
1275	-18.0625
1276	-19.0625
1277	-21.0625
1278	-21.0625
1279	-18.0625
1280	-8.0625
1281	0.9375
1282	12.9375
1283	23.9375
1284	28.9375
1285	28.9375
1286	19.9375
1287	9.9375
1288	-9.0625
1289	-23.0625
1290	-33.0625
1291	-35.0625
1292	-28.0625
1293	-5.0625
1294	16.9375
1295	44.9375
1296	66.9375
1297	78.9375
1298	79.9375
1299	72.9375
1300	55.9375
1301	33.9375
1302	10.9375
1303	-10.0625
1304	-30.0625
1305	-47.0625
1306	-59.0625
1307	-68.0625
1308	-67.0625
1309	-63.0625
1310	-61.0625
1311	-57.0625
1312	-53.0625
1313	-51.0625
1314	-48.0625
1315	-39.0625
1316	-30.0625
1317	-15.0625
1318	0.9375
1319	25.9375
1320	53.9375
1321	81.9375
1322	104.938
1323	114.938
1324	121.938
1325	104.938
1326	79.9375
1327	49.9375
1328	17.9375
1329	-14.0625
1330	-45.0625
1331	-63.0625
1332	-79.0625
1333	-84.0625
1334	-81.0625
1335	-73.0625
1336	-59.0625
1337	-46.0625
1338	-32.0625
1339	-12.0625
1340	1.9375
1341	9.9375
1342	18.9375
1343	17.9375
1344	12.9375
1345	14.9375
1346	15.9375
1347	22.9375
1348	28.9375
1349	39.9375
1350	51.9375
1351	55.9375
1352	49.9375
1353	31.9375
1354	8.9375
1355	-24.0625
1356	-55.0625
1357	-78.0625
1358	-87.0625
1359	-82.0625
1360	-67.0625
1361	-40.0625
1362	-11.0625
1363	11.9375
1364	33.9375
1365	48.9375
1366	53.9375
1367	49.9375
1368	42.9375
1369	36.9375
1370	29.9375
1371	31.9375
1372	38.9375
1373	43.9375
1374	47.9375
1375	43.9375
1376	37.9375
1377	22.9375
1378	1.9375
1379	-28.0625
1380	-62.0625
1381	-87.0625
1382	-110.063
1383	-119.063
1384	-117.063
1385	-100.063
1386	-75.0625
1387	-34.0625
1388	1.9375
1389	33.9375
1390	60.9375
1391	79.9375
1392	83.9375
1393	80.9375
1394	72.9375
1395	56.9375
1396	42.9375
1397	20.9375
1398	-3.0625
1399	-18.0625
1400	-31.0625
1401	-35.0625
1402	-32.0625
1403	-25.0625
1404	-11.0625
1405	-0.0625
1406	11.9375
1407	14.9375
1408	13.9375
1409	5.9375
1410	0.9375
1411	-3.0625
1412	-2.0625
1413	5.9375
1414	16.9375
1415	26.9375
1416	32.9375
1417	28.9375
1418	9.9375
1419	-6.0625
1420	-33.0625
1421	-55.0625
1422	-75.0625
1423	-84.0625
1424	-75.0625
1425	-60.0625
1426	-35.0625
1427	-1.0625
1428	28.9375
1429	52.9375
1430	69.9375
1431	78.9375
1432	78.9375
1433	70.9375
1434	50.9375
1435	29.9375
1436	2.9375
1437	-22.0625
1438	-37.0625
1439	-53.0625
1440	-68.0625
1441	-70.0625
1442	-65.0625
1443	-54.0625
1444	-36.0625
1445	-12.0625
1446	6.9375
1447	25.9375
1448	37.9375
1449	45.9375
1450	46.9375
1451	36.9375
1452	37.9375
1453	31.9375
1454	31.9375
1455	33.9375
1456	32.9375
1457	39.9375
1458	40.9375
1459	37.9375
1460	20.9375
1461	-6.0625
1462	-37.0625
1463	-74.0625
1464	-105.063
1465	-123.063
1466	-125.063
1467	-111.063
1468	-85.0625
1469	-39.0625
1470	9.9375
1471	48.9375
1472	72.9375
1473	77.9375
1474	74.9375
1475	62.9375
1476	41.9375
1477	24.9375
1478	14.9375
1479	22.9375
1480	36.9375
1481	52.9375
1482	66.9375
1483	67.9375
1484	58.9375
1485	36.9375
1486	6.9375
1487	-26.0625
1488	-63.0625
1489	-88.0625
1490	-106.063
1491	-111.063
1492	-103.063
1493	-90.0625
1494	-69.0625
1495	-38.0625
1496	-11.0625
1497	11.9375
1498	26.9375
1499	34.9375
1500	33.9375
1501	34.9375
1502	33.9375
1503	32.9375
1504	32.9375
1505	37.9375
1506	39.9375
1507	41.9375
1508	40.9375
1509	42.9375
1510	38.9375
1511	31.9375
1512	24.9375
1513	16.9375
1514	1.9375
1515	-14.0625
1516	-25.0625
1517	-38.0625
1518	-52.0625
1519	-55.0625
1520	-56.0625
1521	-55.0625
1522	-47.0625
1523	-28.0625
1524	-13.0625
1525	-0.0625
1526	8.9375
1527	14.9375
1528	14.9375
1529	8.9375
1530	6.9375
1531	2.9375
1532	5.9375
1533	13.9375
1534	23.9375
1535	32.9375
1536	46.9375
1537	59.9375
1538	53.9375
1539	49.9375
1540	33.9375
1541	7.9375
1542	-21.0625
1543	-48.0625
1544	-72.0625
1545	-82.0625
1546	-88.0625
1547	-91.0625
1548	-82.0625
1549	-64.0625
1550	-38.0625
1551	-6.0625
1552	22.9375
1553	48.9375
1554	66.9375
1555	74.9375
1556	70.9375
1557	54.9375
1558	37.9375
1559	25.9375
1560	22.9375
1561	28.9375
1562	45.9375
1563	60.9375
1564	62.9375
1565	50.9375
1566	22.9375
1567	-15.0625
1568	-58.0625
1569	-89.0625
1570	-108.063
1571	-110.063
1572	-91.0625
1573	-61.0625
1574	-24.0625
1575	3.9375
1576	27.9375
1577	39.9375
1578	41.9375
1579	32.9375
1580	21.9375
1581	13.9375
1582	1.9375
1583	-10.0625
1584	-19.0625
1585	-23.0625
1586	-26.0625
1587	-24.0625
1588	-17.0625
1589	-10.0625
1590	0.9375
1591	8.9375
1592	11.9375
1593	19.9375
1594	31.9375
1595	45.9375
1596	57.9375
1597	68.9375
1598	79.9375
1599	83.9375
1600	73.9375
1601	54.9375
1602	25.9375
1603	-7.0625
1604	-37.0625
1605	-65.0625
1606	-86.0625
1607	-102.063
1608	-113.063
1609	-123.063
1610	-131.063
1611	-126.063
1612	-120.063
1613	-98.0625
1614	-65.0625
1615	-24.0625
1616	26.9375
1617	82.9375
1618	135.938
1619	178.938
1620	200.938
1621	202.938
1622	177.938
1623	145.938
1624	99.9375
1625	52.9375
1626	15.9375
1627	-11.0625
1628	-31.0625
1629	-52.0625
1630	-78.0625
1631	-103.063
1632	-134.063
1633	-163.063
1634	-184.063
1635	-185.063
1636	-171.063
1637	-131.063
1638	-79.0625
1639	-16.0625
1640	44.9375
1641	99.9375
1642	130.938
1643	149.938
1644	156.938
1645	149.938
1646	137.938
1647	118.938
1648	102.938
1649	76.9375
1650	45.9375
1651	6.9375
1652	-39.0625
1653	-81.0625
1654	-111.063
1655	-132.063
1656	-139.063
1657	-135.063
1658	-130.063
1659	-119.063
1660	-104.063
1661	-84.0625
1662	-51.0625
1663	-11.0625
1664	35.9375
1665	85.9375
1666	134.938
1667	173.938
1668	204.938
1669	213.938
1670	209.938
1671	175.938
1672	129.938
1673	66.9375
1674	-5.0625
1675	-81.0625
1676	-157.063
1677	-209.063
1678	-242.063
1679	-249.063
1680	-233.063
1681	-190.063
1682	-141.063
1683	-85.0625
1684	-36.0625
1685	7.9375
1686	32.9375
1687	53.9375
1688	79.9375
1689	115.938
1690	156.938
1691	208.938
1692	251.938
1693	274.938
1694	270.938
1695	226.938
1696	145.938
1697	47.9375
1698	-55.0625
1699	-148.063
1700	-220.063
1701	-264.063
1702	-266.063
1703	-243.063
1704	-199.063
1705	-148.063
1706	-94.0625
1707	-43.0625
1708	-4.0625
1709	30.9375
1710	63.9375
1711	92.9375
1712	120.938
1713	138.938
1714	143.938
1715	131.938
1716	100.938
1717	56.9375
1718	6.9375
1719	-39.0625
1720	-74.0625
1721	-87.0625
1722	-89.0625
1723	-86.0625
1724	-79.0625
1725	-75.0625
1726	-71.0625
1727	-64.0625
1728	-48.0625
1729	-15.0625
1730	31.9375
1731	87.9375
1732	147.938
1733	196.938
1734	227.938
1735	238.938
1736	212.938
1737	165.938
1738	97.9375
1739	7.9375
1740	-89.0625
1741	-177.063
1742	-257.063
1743	-307.063
1744	-333.063
1745	-323.063
1746	-279.063
1747	-209.063
1748	-118.063
1749	-21.0625
1750	66.9375
1751	140.938
1752	191.938
1753	217.938
1754	228.938
1755	229.938
1756	228.938
1757	230.938
1758	226.938
1759	214.938
1760	186.938
1761	134.938
1762	60.9375
1763	-35.0625
1764	-136.063
1765	-233.063
1766	-311.063
1767	-361.063
1768	-384.063
1769	-379.063
1770	-334.063
1771	-257.063
1772	-157.063
1773	-42.0625
1774	82.9375
1775	200.938
1776	295.938
1777	349.938
1778	363.938
1779	332.938
1780	266.938
1781	179.938
1782	85.9375
1783	8.9375
1784	-49.0625
1785	-79.0625
1786	-82.0625
1787	-77.0625
1788	-77.0625
1789	-93.0625
1790	-123.063
1791	-165.063
1792	-203.063
1793	-223.063
1794	-210.063
1795	-160.063
1796	-81.0625
1797	16.9375
1798	111.938
1799	190.938
1800	229.938
1801	238.938
1802	217.938
1803	174.938
1804	127.938
1805	84.9375
1806	43.9375
1807	5.9375
1808	-41.0625
1809	-94.0625
1810	-154.063
1811	-210.063
1812	-237.063
1813	-229.063
1814	-182.063
1815	-101.063
1816	6.9375
1817	101.938
1818	174.938
1819	201.938
1820	192.938
1821	135.938
1822	65.9375
1823	-0.0625
1824	-40.0625
1825	-46.0625
1826	-23.0625
1827	25.9375
1828	77.9375
1829	112.938
1830	115.938
1831	78.9375
1832	1.9375
1833	-99.0625
1834	-204.063
1835	-284.063
1836	-322.063
1837	-309.063
1838	-234.063
1839	-115.063
1840	27.9375
1841	158.938
1842	259.938
1843	303.938
1844	288.938
1845	213.938
1846	109.938
1847	4.9375
1848	-77.0625
1849	-118.063
1850	-109.063
1851	-62.0625
1852	2.9375
1853	61.9375
1854	93.9375
1855	92.9375
1856	65.9375
1857	11.9375
1858	-42.0625
1859	-85.0625
1860	-105.063
1861	-93.0625
1862	-67.0625
1863	-32.0625
1864	3.9375
1865	22.9375
1866	28.9375
1867	25.9375
1868	18.9375
1869	8.9375
1870	6.9375
1871	6.9375
1872	1.9375
1873	-3.0625
1874	-24.0625
1875	-61.0625
1876	-107.063
1877	-145.063
1878	-165.063
1879	-149.063
1880	-92.0625
1881	-2.0625
1882	102.938
1883	209.938
1884	284.938
1885	314.938
1886	286.938
1887	211.938
1888	103.938
1889	-7.0625
1890	-102.063
1891	-150.063
1892	-149.063
1893	-107.063
1894	-42.0625
1895	25.9375
1896	73.9375
1897	80.9375
1898	47.9375
1899	-25.0625
1900	-118.063
1901	-208.063
1902	-277.063
1903	-307.063
1904	-288.063
1905	-222.063
1906	-129.063
1907	-16.0625
1908	89.9375
1909	168.938
1910	213.938
1911	216.938
1912	192.938
1913	148.938
1914	95.9375
1915	40.9375
1916	-3.0625
1917	-39.0625
1918	-54.0625
1919	-42.0625
1920	-14.0625
1921	40.9375
1922	105.938
1923	172.938
1924	215.938
1925	217.938
1926	178.938
1927	84.9375
1928	-29.0625
1929	-146.063
1930	-237.063
1931	-280.063
1932	-265.063
1933	-196.063
1934	-101.063
1935	-2.0625
1936	75.9375
1937	105.938
1938	82.9375
1939	26.9375
1940	-48.0625
1941	-111.063
1942	-149.063
1943	-141.063
1944	-92.0625
1945	-17.0625
1946	69.9375
1947	146.938
1948	200.938
1949	228.938
1950	225.938
1951	200.938
1952	158.938
1953	109.938
1954	49.9375
1955	-21.0625
1956	-107.063
1957	-203.063
1958	-299.063
1959	-378.063
1960	-409.063
1961	-379.063
1962	-279.063
1963	-124.063
1964	62.9375
1965	237.938
1966	363.938
1967	407.938
1968	367.938
1969	259.938
1970	115.938
1971	-23.0625
1972	-110.063
1973	-121.063
1974	-55.0625
1975	62.9375
1976	197.938
1977	300.938
1978	319.938
1979	235.938
1980	55.9375
1981	-188.063
1982	-438.063
1983	-629.063
1984	-698.063
1985	-624.063
1986	-416.063
1987	-117.063
1988	189.938
1989	440.938
1990	575.938
1991	567.938
1992	437.938
1993	230.938
1994	17.9375
1995	-141.063
1996	-207.063
1997	-168.063
1998	-60.0625
1999	64.9375
2000	147.938
2001	138.938
2002	47.9375
2003	-105.063
2004	-252.063
2005	-338.063
2006	-326.063
2007	-218.063
2008	-39.0625
2009	145.938
2010	280.938
2011	321.938
2012	268.938
2013	144.938
2014	12.9375
2015	-71.0625
2016	-54.0625
2017	57.9375
2018	224.938
2019	387.938
2020	469.938
2021	414.938
2022	205.938
2023	-110.063
2024	-475.063
2025	-787.063
2026	-953.063
2027	-925.063
2028	-711.063
2029	-371.063
2030	7.9375
2031	324.938
2032	521.938
2033	563.938
2034	462.938
2035	267.938
2036	44.9375
2037	-140.063
2038	-224.063
2039	-181.063
2040	-21.0625
2041	212.938
2042	448.938
2043	594.938
2044	589.938
2045	382.938
2046	5.9375
2047	-461.063
2048	-902.063
2049	-1181.06
2050	-1207.06
2051	-958.063
2052	-482.063
2053	82.9375
2054	600.938
2055	946.938
2056	1053.94
2057	947.938
2058	713.938
2059	481.938
2060	370.938
2061	438.938
2062	650.938
2063	885.938
2064	992.938
2065	850.938
2066	444.938
2067	-141.063
2068	-743.063
2069	-1194.06
2070	-1366.06
2071	-1212.06
2072	-780.063
2073	-202.063
2074	356.938
2075	737.938
2076	887.938
2077	831.938
2078	616.938
2079	208.938
2080	-496.063
2081	-1576.06
2082	-2946.06
2083	-4350.06
2084	-5454.06
2085	-5997.06
2086	-5812.06
2087	-4730.06
2088	-2519.06
2089	953.938
2090	5384.94
2091	9840.94
2092	12950.9
2093	13567.9
2094	11372.9
2095	7093.94
2096	2124.94
2097	-2190.06
2098	-5107.06
2099	-6569.06
2100	-6885.06
2101	-6385.06
2102	-5293.06
2103	-3819.06
2104	-2240.06
2105	-846.063
2106	150.938
2107	728.938
2108	1010.94
2109	1089.94
2110	984.938
2111	678.938
2112	178.938
2113	-411.063
2114	-924.063
2115	-1199.06
2116	-1159.06
2117	-812.063
2118	-246.063
2119	377.938
2120	890.938
2121	1169.94
2122	1162.94
2123	943.938
2124	655.938
2125	441.938
2126	399.938
2127	524.938
2128	724.938
2129	882.938
2130	877.938
2131	655.938
2132	235.938
2133	-306.063
2134	-822.063
2135	-1176.06
2136	-1275.06
2137	-1095.06
2138	-698.063
2139	-199.063
2140	258.938
2141	567.938
2142	673.938
2143	582.938
2144	357.938
2145	85.9375
2146	-142.063
2147	-260.063
2148	-243.063
2149	-103.063
2150	109.938
2151	330.938
2152	484.938
2153	513.938
2154	388.938
2155	122.938
2156	-229.063
2157	-583.063
2158	-851.063
2159	-957.063
2160	-864.063
2161	-600.063
2162	-244.063
2163	118.938
2164	391.938
2165	517.938
2166	488.938
2167	347.938
2168	164.938
2169	11.9375
2170	-61.0625
2171	-37.0625
2172	69.9375
2173	198.938
2174	292.938
2175	299.938
2176	210.938
2177	50.9375
2178	-134.063
2179	-287.063
2180	-354.063
2181	-314.063
2182	-194.063
2183	-34.0625
2184	100.938
2185	160.938
2186	128.938
2187	30.9375
2188	-89.0625
2189	-173.063
2190	-168.063
2191	-65.0625
2192	118.938
2193	327.938
2194	495.938
2195	563.938
2196	490.938
2197	290.938
2198	-0.0625
2199	-313.063
2200	-565.063
2201	-705.063
2202	-693.063
2203	-546.063
2204	-305.063
2205	-33.0625
2206	199.938
2207	341.938
2208	365.938
2209	297.938
2210	164.938
2211	24.9375
2212	-80.0625
2213	-110.063
2214	-63.0625
2215	45.9375
2216	185.938
2217	305.938
2218	373.938
2219	362.938
2220	263.938
2221	106.938
2222	-79.0625
2223	-256.063
2224	-379.063
2225	-430.063
2226	-414.063
2227	-343.063
2228	-240.063
2229	-125.063
2230	-22.0625
2231	59.9375
2232	121.938
2233	173.938
2234	212.938
2235	235.938
2236	240.938
2237	215.938
2238	165.938
2239	91.9375
2240	4.9375
2241	-80.0625
2242	-142.063
2243	-170.063
2244	-153.063
2245	-99.0625
2246	-22.0625
2247	49.9375
2248	92.9375
2249	88.9375
2250	37.9375
2251	-44.0625
2252	-140.063
2253	-221.063
2254	-258.063
2255	-241.063
2256	-169.063
2257	-59.0625
2258	60.9375
2259	163.938
2260	228.938
2261	244.938
2262	216.938
2263	149.938
2264	74.9375
2265	4.9375
2266	-42.0625
2267	-63.0625
2268	-54.0625
2269	-23.0625
2270	20.9375
2271	68.9375
2272	118.938
2273	161.938
2274	189.938
2275	194.938
2276	162.938
2277	96.9375
2278	1.9375
2279	-109.063
2280	-214.063
2281	-291.063
2282	-327.063
2283	-315.063
2284	-254.063
2285	-164.063
2286	-59.0625
2287	33.9375
2288	90.9375
2289	110.938
2290	83.9375
2291	26.9375
2292	-42.0625
2293	-95.0625
2294	-120.063
2295	-99.0625
2296	-34.0625
2297	68.9375
2298	178.938
2299	268.938
2300	310.938
2301	298.938
2302	230.938
2303	130.938
2304	17.9375
2305	-87.0625
2306	-159.063
2307	-189.063
2308	-180.063
2309	-142.063
2310	-91.0625
2311	-40.0625
2312	-2.0625
2313	17.9375
2314	22.9375
2315	21.9375
2316	18.9375
2317	19.9375
2318	17.9375
2319	19.9375
2320	20.9375
2321	3.9375
2322	-20.0625
2323	-51.0625
2324	-83.0625
2325	-106.063
2326	-97.0625
2327	-62.0625
2328	-11.0625
2329	44.9375
2330	98.9375
2331	117.938
2332	101.938
2333	55.9375
2334	-11.0625
2335	-70.0625
2336	-104.063
2337	-96.0625
2338	-40.0625
2339	50.9375
2340	154.938
2341	240.938
2342	285.938
2343	266.938
2344	190.938
2345	64.9375
2346	-78.0625
2347	-214.063
2348	-309.063
2349	-346.063
2350	-316.063
2351	-238.063
2352	-130.063
2353	-18.0625
2354	76.9375
2355	135.938
2356	146.938
2357	122.938
2358	69.9375
2359	11.9375
2360	-32.0625
2361	-47.0625
2362	-25.0625
2363	29.9375
2364	95.9375
2365	154.938
2366	185.938
2367	177.938
2368	128.938
2369	37.9375
2370	-63.0625
2371	-156.063
2372	-220.063
2373	-240.063
2374	-222.063
2375	-172.063
2376	-108.063
2377	-46.0625
2378	8.9375
2379	49.9375
2380	87.9375
2381	121.938
2382	154.938
2383	190.938
2384	218.938
2385	221.938
2386	188.938
2387	128.938
2388	37.9375
2389	-62.0625
2390	-148.063
2391	-208.063
2392	-231.063
2393	-221.063
2394	-187.063
2395	-134.063
2396	-88.0625
2397	-56.0625
2398	-45.0625
2399	-45.0625
2400	-45.0625
2401	-34.0625
2402	4.9375
2403	65.9375
2404	146.938
2405	229.938
2406	303.938
2407	342.938
2408	341.938
2409	295.938
2410	214.938
2411	102.938
2412	-28.0625
2413	-153.063
2414	-259.063
2415	-337.063
2416	-380.063
2417	-392.063
2418	-370.063
2419	-317.063
2420	-237.063
2421	-141.063
2422	-37.0625
2423	64.9375
2424	147.938
2425	206.938
2426	245.938
2427	254.938
2428	249.938
2429	234.938
2430	223.938
2431	211.938
2432	198.938
2433	171.938
2434	128.938
2435	65.9375
2436	-17.0625
2437	-113.063
2438	-203.063
2439	-276.063
2440	-323.063
2441	-341.063
2442	-323.063
2443	-269.063
2444	-192.063
2445	-98.0625
2446	0.9375
2447	97.9375
2448	175.938
2449	231.938
2450	256.938
2451	247.938
2452	218.938
2453	166.938
2454	105.938
2455	40.9375
2456	-11.0625
2457	-52.0625
2458	-77.0625
2459	-89.0625
2460	-90.0625
2461	-89.0625
2462	-87.0625
2463	-88.0625
2464	-86.0625
2465	-71.0625
2466	-47.0625
2467	-8.0625
2468	40.9375
2469	84.9375
2470	126.938
2471	142.938
2472	140.938
2473	122.938
2474	92.9375
2475	61.9375
2476	24.9375
2477	-9.0625
2478	-50.0625
2479	-95.0625
2480	-139.063
2481	-184.063
2482	-223.063
2483	-248.063
2484	-248.063
2485	-216.063
2486	-158.063
2487	-68.0625
2488	35.9375
2489	135.938
2490	226.938
2491	282.938
2492	301.938
2493	281.938
2494	232.938
2495	170.938
2496	110.938
2497	63.9375
2498	31.9375
2499	3.9375
2500	-22.0625
2501	-51.0625
2502	-89.0625
2503	-136.063
2504	-186.063
2505	-226.063
2506	-246.063
2507	-240.063
2508	-215.063
2509	-160.063
2510	-88.0625
2511	-10.0625
2512	69.9375
2513	135.938
2514	183.938
2515	218.938
2516	222.938
2517	211.938
2518	184.938
2519	141.938
2520	93.9375
2521	37.9375
2522	-16.0625
2523	-58.0625
2524	-90.0625
2525	-112.063
2526	-129.063
2527	-139.063
2528	-139.063
2529	-133.063
2530	-127.063
2531	-109.063
2532	-76.0625
2533	-40.0625
2534	2.9375
2535	46.9375
2536	77.9375
2537	105.938
2538	122.938
2539	138.938
2540	148.938
2541	151.938
2542	145.938
2543	120.938
2544	92.9375
2545	49.9375
2546	-11.0625
2547	-72.0625
2548	-127.063
2549	-171.063
2550	-192.063
2551	-193.063
2552	-176.063
2553	-144.063
2554	-107.063
2555	-67.0625
2556	-41.0625
2557	-17.0625
2558	6.9375
2559	32.9375
2560	62.9375
2561	95.9375
2562	136.938
2563	171.938
2564	194.938
2565	198.938
2566	181.938
2567	144.938
2568	90.9375
2569	33.9375
2570	-26.0625
2571	-74.0625
2572	-112.063
2573	-139.063
2574	-144.063
2575	-143.063
2576	-134.063
2577	-118.063
2578	-99.0625
2579	-80.0625
2580	-60.0625
2581	-32.0625
2582	-4.0625
2583	26.9375
2584	60.9375
2585	81.9375
2586	94.9375
2587	96.9375
2588	87.9375
2589	66.9375
2590	46.9375
2591	23.9375
2592	13.9375
2593	6.9375
2594	-0.0625
2595	-5.0625
2596	-9.0625
2597	-21.0625
2598	-29.0625
2599	-32.0625
2600	-32.0625
2601	-26.0625
2602	-13.0625
2603	-3.0625
2604	8.9375
2605	22.9375
2606	30.9375
2607	35.9375
2608	37.9375
2609	30.9375
2610	12.9375
2611	-16.0625
2612	-49.0625
2613	-78.0625
2614	-104.063
2615	-115.063
2616	-103.063
2617	-70.0625
2618	-26.0625
2619	17.9375
2620	53.9375
2621	73.9375
2622	77.9375
2623	66.9375
2624	50.9375
2625	38.9375
2626	28.9375
2627	36.9375
2628	46.9375
2629	61.9375
2630	68.9375
2631	63.9375
2632	51.9375
2633	21.9375
2634	-7.0625
2635	-39.0625
2636	-69.0625
2637	-90.0625
2638	-99.0625
2639	-98.0625
2640	-90.0625
2641	-76.0625
2642	-52.0625
2643	-23.0625
2644	3.9375
2645	33.9375
2646	53.9375
2647	64.9375
2648	68.9375
2649	61.9375
2650	47.9375
2651	31.9375
2652	18.9375
2653	5.9375
2654	-4.0625
2655	-3.0625
2656	-2.0625
2657	-1.0625
2658	3.9375
2659	6.9375
2660	-1.0625
2661	-13.0625
2662	-29.0625
2663	-41.0625
2664	-49.0625
2665	-53.0625
2666	-55.0625
2667	-49.0625
2668	-39.0625
2669	-20.0625
2670	-4.0625
2671	9.9375
2672	24.9375
2673	32.9375
2674	37.9375
2675	41.9375
2676	44.9375
2677	46.9375
2678	42.9375
2679	40.9375
2680	33.9375
2681	28.9375
2682	24.9375
2683	20.9375
2684	19.9375
2685	20.9375
2686	22.9375
2687	19.9375
2688	9.9375
2689	-6.0625
2690	-34.0625
2691	-59.0625
2692	-85.0625
2693	-102.063
2694	-109.063
2695	-104.063
2696	-90.0625
2697	-63.0625
2698	-34.0625
2699	2.9375
2700	42.9375
2701	66.9375
2702	79.9375
2703	82.9375
2704	71.9375
2705	49.9375
2706	31.9375
2707	16.9375
2708	15.9375
2709	21.9375
2710	38.9375
2711	58.9375
2712	72.9375
2713	71.9375
2714	52.9375
2715	16.9375
2716	-27.0625
2717	-75.0625
2718	-111.063
2719	-132.063
2720	-132.063
2721	-114.063
2722	-83.0625
2723	-46.0625
2724	-9.0625
2725	22.9375
2726	45.9375
2727	55.9375
2728	53.9375
2729	48.9375
2730	39.9375
2731	34.9375
2732	29.9375
2733	31.9375
2734	37.9375
2735	37.9375
2736	37.9375
2737	32.9375
2738	24.9375
2739	9.9375
2740	-11.0625
2741	-34.0625
2742	-52.0625
2743	-64.0625
2744	-67.0625
2745	-66.0625
2746	-58.0625
2747	-42.0625
2748	-22.0625
2749	4.9375
2750	26.9375
2751	48.9375
2752	68.9375
2753	79.9375
2754	79.9375
2755	73.9375
2756	57.9375
2757	32.9375
2758	3.9375
2759	-30.0625
2760	-60.0625
2761	-79.0625
2762	-89.0625
2763	-87.0625
2764	-73.0625
2765	-43.0625
2766	-13.0625
2767	12.9375
2768	29.9375
2769	39.9375
2770	37.9375
2771	27.9375
2772	15.9375
2773	4.9375
2774	-2.0625
2775	-3.0625
2776	0.9375
2777	7.9375
2778	13.9375
2779	16.9375
2780	9.9375
2781	-4.0625
2782	-15.0625
2783	-25.0625
2784	-35.0625
2785	-33.0625
2786	-23.0625
2787	-7.0625
2788	14.9375
2789	36.9375
2790	55.9375
2791	64.9375
2792	74.9375
2793	74.9375
2794	69.9375
2795	58.9375
2796	36.9375
2797	5.9375
2798	-30.0625
2799	-69.0625
2800	-100.063
2801	-119.063
2802	-129.063
2803	-122.063
2804	-98.0625
2805	-68.0625
2806	-31.0625
2807	2.9375
2808	28.9375
2809	49.9375
2810	63.9375
2811	63.9375
2812	56.9375
2813	47.9375
2814	36.9375
2815	28.9375
2816	31.9375
2817	37.9375
2818	42.9375
2819	46.9375
2820	42.9375
2821	36.9375
2822	18.9375
2823	-5.0625
2824	-35.0625
2825	-61.0625
2826	-84.0625
2827	-92.0625
2828	-85.0625
2829	-68.0625
2830	-40.0625
2831	-10.0625
2832	25.9375
2833	51.9375
2834	62.9375
2835	64.9375
2836	54.9375
2837	41.9375
2838	23.9375
2839	12.9375
2840	9.9375
2841	8.9375
2842	8.9375
2843	10.9375
2844	7.9375
2845	-0.0625
2846	-13.0625
2847	-29.0625
2848	-42.0625
2849	-55.0625
2850	-68.0625
2851	-76.0625
2852	-81.0625
2853	-75.0625
2854	-62.0625
2855	-40.0625
2856	-14.0625
2857	18.9375
2858	51.9375
2859	81.9375
2860	106.938
2861	121.938
2862	122.938
2863	109.938
2864	89.9375
2865	57.9375
2866	28.9375
2867	-1.0625
2868	-29.0625
2869	-44.0625
2870	-56.0625
2871	-62.0625
2872	-58.0625
2873	-60.0625
2874	-60.0625
2875	-60.0625
2876	-60.0625
2877	-61.0625
2878	-59.0625
2879	-51.0625
2880	-43.0625
2881	-26.0625
2882	-6.0625
2883	14.9375
2884	36.9375
2885	58.9375
2886	73.9375
2887	85.9375
2888	80.9375
2889	72.9375
2890	53.9375
2891	27.9375
2892	0.9375
2893	-25.0625
2894	-40.0625
2895	-43.0625
2896	-32.0625
2897	-19.0625
2898	-3.0625
2899	14.9375
2900	25.9375
2901	28.9375
2902	23.9375
2903	15.9375
2904	1.9375
2905	-10.0625
2906	-19.0625
2907	-26.0625
2908	-29.0625
2909	-26.0625
2910	-22.0625
2911	-15.0625
2912	-9.0625
2913	-5.0625
2914	-4.0625
2915	-7.0625
2916	-15.0625
2917	-26.0625
2918	-34.0625
2919	-34.0625
2920	-30.0625
2921	-19.0625
2922	-0.0625
2923	24.9375
2924	44.9375
2925	60.9375
2926	67.9375
2927	61.9375
2928	53.9375
2929	40.9375
2930	22.9375
2931	4.9375
2932	-11.0625
2933	-24.0625
2934	-27.0625
2935	-29.0625
2936	-31.0625
2937	-28.0625
2938	-25.0625
2939	-16.0625
2940	-10.0625
2941	-5.0625
2942	1.9375
2943	10.9375
2944	12.9375
2945	8.9375
2946	2.9375
2947	-5.0625
2948	-16.0625
2949	-29.0625
2950	-31.0625
2951	-24.0625
2952	-15.0625
2953	1.9375
2954	24.9375
2955	40.9375
2956	48.9375
2957	44.9375
2958	34.9375
2959	15.9375
2960	-1.0625
2961	-14.0625
2962	-23.0625
2963	-24.0625
2964	-14.0625
2965	-0.0625
2966	14.9375
2967	20.9375
2968	20.9375
2969	10.9375
2970	-4.0625
2971	-26.0625
2972	-46.0625
2973	-62.0625
2974	-63.0625
2975	-56.0625
2976	-36.0625
2977	-11.0625
2978	18.9375
2979	44.9375
2980	61.9375
2981	69.9375
2982	63.9375
2983	48.9375
2984	18.9375
2985	-3.0625
2986	-23.0625
2987	-31.0625
2988	-29.0625
2989	-21.0625
2990	-4.0625
2991	10.9375
2992	18.9375
2993	21.9375
2994	15.9375
2995	2.9375
2996	-6.0625
2997	-19.0625
2998	-21.0625
2999	-27.0625
3000	-23.0625
3001	-16.0625
3002	-11.0625
3003	-4.0625
3004	1.9375
3005	6.9375
3006	12.9375
3007	6.9375
3008	3.9375
3009	0.9375
3010	-8.0625
3011	-13.0625
3012	-21.0625
3013	-27.0625
3014	-32.0625
3015	-33.0625
3016	-24.0625
3017	-13.0625
3018	0.9375
3019	21.9375
3020	38.9375
3021	53.9375
3022	63.9375
3023	65.9375
3024	61.9375
3025	49.9375
3026	37.9375
3027	23.9375
3028	11.9375
3029	2.9375
3030	-3.0625
3031	-10.0625
3032	-12.0625
3033	-15.0625
3034	-25.0625
3035	-36.0625
3036	-48.0625
3037	-63.0625
3038	-74.0625
3039	-79.0625
3040	-80.0625
3041	-78.0625
3042	-65.0625
3043	-42.0625
3044	-16.0625
3045	6.9375
3046	33.9375
3047	51.9375
3048	67.9375
3049	76.9375
3050	75.9375
3051	67.9375
3052	58.9375
3053	44.9375
3054	31.9375
3055	18.9375
3056	13.9375
3057	13.9375
3058	15.9375
3059	15.9375
3060	18.9375
3061	16.9375
3062	12.9375
3063	4.9375
3064	-3.0625
3065	-20.0625
3066	-33.0625
3067	-44.0625
3068	-55.0625
3069	-63.0625
3070	-67.0625
3071	-64.0625
3072	-53.0625
3073	-43.0625
3074	-32.0625
3075	-20.0625
3076	-12.0625
3077	-6.0625
3078	-7.0625
3079	-5.0625
3080	-6.0625
3081	3.9375
3082	16.9375
3083	30.9375
3084	47.9375
3085	61.9375
3086	74.9375
3087	81.9375
3088	78.9375
3089	69.9375
3090	56.9375
3091	38.9375
3092	19.9375
3093	-3.0625
3094	-18.0625
3095	-26.0625
3096	-41.0625
3097	-46.0625
3098	-43.0625
3099	-39.0625
3100	-34.0625
3101	-28.0625
3102	-24.0625
3103	-29.0625
3104	-35.0625
3105	-44.0625
3106	-49.0625
3107	-49.0625
3108	-39.0625
3109	-27.0625
3110	-9.0625
3111	11.9375
3112	30.9375
3113	44.9375
3114	56.9375
3115	64.9375
3116	66.9375
3117	62.9375
3118	49.9375
3119	34.9375
3120	16.9375
3121	0.9375
3122	-19.0625
3123	-33.0625
3124	-37.0625
3125	-33.0625
3126	-25.0625
3127	-18.0625
3128	-16.0625
3129	-12.0625
3130	-13.0625
3131	-10.0625
3132	-2.0625
3133	5.9375
3134	13.9375
3135	22.9375
3136	31.9375
3137	34.9375
3138	31.9375
3139	21.9375
3140	15.9375
3141	0.9375
3142	-17.0625
3143	-29.0625
3144	-41.0625
3145	-56.0625
3146	-65.0625
3147	-71.0625
3148	-65.0625
3149	-52.0625
3150	-37.0625
3151	-9.0625
3152	23.9375
3153	49.9375
3154	66.9375
3155	77.9375
3156	82.9375
3157	77.9375
3158	69.9375
3159	55.9375
3160	30.9375
3161	11.9375
3162	-6.0625
3163	-22.0625
3164	-34.0625
3165	-41.0625
3166	-42.0625
3167	-41.0625
3168	-37.0625
3169	-34.0625
3170	-30.0625
3171	-27.0625
3172	-27.0625
3173	-23.0625
3174	-17.0625
3175	-8.0625
3176	6.9375
3177	19.9375
3178	30.9375
3179	41.9375
3180	43.9375
3181	36.9375
3182	26.9375
3183	15.9375
3184	2.9375
3185	-9.0625
3186	-19.0625
3187	-20.0625
3188	-17.0625
3189	-14.0625
3190	-11.0625
3191	-8.0625
3192	-7.0625
3193	-5.0625
3194	0.9375
3195	0.9375
3196	1.9375
3197	0.9375
3198	0.9375
3199	-1.0625
3200	-2.0625
3201	-5.0625
3202	-8.0625
3203	-8.0625
3204	-5.0625
3205	-3.0625
3206	-0.0625
3207	1.9375
3208	4.9375
3209	6.9375
3210	13.9375
3211	14.9375
3212	15.9375
3213	15.9375
3214	11.9375
3215	5.9375
3216	-3.0625
3217	-4.0625
3218	-2.0625
3219	1.9375
3220	9.9375
3221	18.9375
3222	22.9375
3223	24.9375
3224	20.9375
3225	13.9375
3226	0.9375
3227	-18.0625
3228	-30.0625
3229	-42.0625
3230	-43.0625
3231	-43.0625
3232	-39.0625
3233	-37.0625
3234	-32.0625
3235	-28.0625
3236	-27.0625
3237	-22.0625
3238	-21.0625
3239	-16.0625
3240	-9.0625
3241	1.9375
3242	15.9375
3243	33.9375
3244	50.9375
3245	64.9375
3246	80.9375
3247	89.9375
3248	87.9375
3249	83.9375
3250	73.9375
3251	49.9375
3252	21.9375
3253	-2.0625
3254	-24.0625
3255	-45.0625
3256	-60.0625
3257	-68.0625
3258	-78.0625
3259	-82.0625
3260	-83.0625
3261	-75.0625
3262	-67.0625
3263	-55.0625
3264	-45.0625
3265	-26.0625
3266	-9.0625
3267	9.9375
3268	22.9375
3269	37.9375
3270	49.9375
3271	57.9375
3272	59.9375
3273	61.9375
3274	58.9375
3275	53.9375
3276	45.9375
3277	28.9375
3278	14.9375
3279	-3.0625
3280	-18.0625
3281	-28.0625
3282	-30.0625
3283	-32.0625
3284	-23.0625
3285	-17.0625
3286	-12.0625
3287	-1.0625
3288	6.9375
3289	9.9375
3290	9.9375
3291	9.9375
3292	10.9375
3293	3.9375
3294	-0.0625
3295	-8.0625
3296	-14.0625
3297	-23.0625
3298	-25.0625
3299	-25.0625
3300	-23.0625
3301	-24.0625
3302	-23.0625
3303	-23.0625
3304	-23.0625
3305	-22.0625
3306	-17.0625
3307	-13.0625
3308	-6.0625
3309	10.9375
3310	22.9375
3311	33.9375
3312	46.9375
3313	54.9375
3314	60.9375
3315	62.9375
3316	62.9375
3317	56.9375
3318	49.9375
3319	34.9375
3320	16.9375
3321	0.9375
3322	-20.0625
3323	-34.0625
3324	-44.0625
3325	-57.0625
3326	-63.0625
3327	-60.0625
3328	-56.0625
3329	-53.0625
3330	-51.0625
3331	-45.0625
3332	-38.0625
3333	-30.0625
3334	-17.0625
3335	-9.0625
3336	2.9375
3337	11.9375
3338	19.9375
3339	25.9375
3340	32.9375
3341	36.9375
3342	42.9375
3343	47.9375
3344	49.9375
3345	48.9375
3346	46.9375
3347	39.9375
3348	33.9375
3349	25.9375
3350	19.9375
3351	13.9375
3352	7.9375
3353	-1.0625
3354	-16.0625
3355	-28.0625
3356	-44.0625
3357	-54.0625
3358	-60.0625
3359	-61.0625
3360	-57.0625
3361	-52.0625
3362	-43.0625
3363	-31.0625
3364	-19.0625
3365	-4.0625
3366	10.9375
3367	24.9375
3368	34.9375
3369	47.9375
3370	47.9375
3371	42.9375
3372	33.9375
3373	19.9375
3374	5.9375
3375	-6.0625
3376	-13.0625
3377	-13.0625
3378	-16.0625
3379	-11.0625
3380	-5.0625
3381	4.9375
3382	11.9375
3383	20.9375
3384	26.9375
3385	26.9375
3386	27.9375
3387	21.9375
3388	16.9375
3389	3.9375
3390	-13.0625
3391	-25.0625
3392	-40.0625
3393	-47.0625
3394	-46.0625
3395	-47.0625
3396	-44.0625
3397	-34.0625
3398	-24.0625
3399	-16.0625
3400	-3.0625
3401	11.9375
3402	24.9375
3403	32.9375
3404	36.9375
3405	39.9375
3406	42.9375
3407	39.9375
3408	35.9375
3409	29.9375
3410	26.9375
3411	23.9375
3412	10.9375
3413	4.9375
3414	-2.0625
3415	-6.0625
3416	-9.0625
3417	-16.0625
3418	-18.0625
3419	-15.0625
3420	-18.0625
3421	-18.0625
3422	-19.0625
3423	-26.0625
3424	-31.0625
3425	-39.0625
3426	-44.0625
3427	-49.0625
3428	-49.0625
3429	-43.0625
3430	-33.0625
3431	-18.0625
3432	-1.0625
3433	23.9375
3434	47.9375
3435	62.9375
3436	72.9375
3437	80.9375
3438	81.9375
3439	75.9375
3440	59.9375
3441	41.9375
3442	22.9375
3443	5.9375
3444	-14.0625
3445	-27.0625
3446	-42.0625
3447	-53.0625
3448	-57.0625
3449	-58.0625
3450	-58.0625
3451	-52.0625
3452	-41.0625
3453	-30.0625
3454	-15.0625
3455	-2.0625
3456	13.9375
3457	27.9375
3458	33.9375
3459	31.9375
3460	34.9375
3461	31.9375
3462	24.9375
3463	17.9375
3464	13.9375
3465	3.9375
3466	-8.0625
3467	-15.0625
3468	-22.0625
3469	-26.0625
3470	-35.0625
3471	-32.0625
3472	-26.0625
3473	-18.0625
3474	-12.0625
3475	3.9375
3476	18.9375
3477	30.9375
3478	40.9375
3479	47.9375
3480	49.9375
3481	49.9375
3482	43.9375
3483	30.9375
3484	15.9375
3485	-1.0625
3486	-18.0625
3487	-29.0625
3488	-39.0625
3489	-45.0625
3490	-48.0625
3491	-49.0625
3492	-48.0625
3493	-43.0625
3494	-40.0625
3495	-36.0625
3496	-24.0625
3497	-9.0625
3498	1.9375
3499	21.9375
3500	33.9375
3501	43.9375
3502	50.9375
3503	56.9375
3504	56.9375
3505	51.9375
3506	40.9375
3507	28.9375
3508	16.9375
3509	1.9375
3510	-7.0625
3511	-18.0625
3512	-27.0625
3513	-26.0625
3514	-23.0625
3515	-23.0625
3516	-15.0625
3517	-9.0625
3518	-6.0625
3519	-6.0625
3520	-9.0625
3521	-6.0625
3522	-8.0625
3523	-12.0625
3524	-14.0625
3525	-17.0625
3526	-21.0625
3527	-20.0625
3528	-21.0625
3529	-18.0625
3530	-13.0625
3531	-7.0625
3532	4.9375
3533	13.9375
3534	18.9375
3535	25.9375
3536	32.9375
3537	36.9375
3538	38.9375
3539	34.9375
3540	35.9375
3541	34.9375
3542	28.9375
3543	23.9375
3544	12.9375
3545	-3.0625
3546	-7.0625
3547	-14.0625
3548	-25.0625
3549	-30.0625
3550	-31.0625
3551	-30.0625
3552	-33.0625
3553	-35.0625
3554	-38.0625
3555	-33.0625
3556	-28.0625
3557	-20.0625
3558	-11.0625
3559	2.9375
3560	8.9375
3561	10.9375
3562	9.9375
3563	7.9375
3564	5.9375
3565	0.9375
3566	5.9375
3567	14.9375
3568	25.9375
3569	34.9375
3570	40.9375
3571	39.9375
3572	40.9375
3573	40.9375
3574	31.9375
3575	19.9375
3576	9.9375
3577	-3.0625
3578	-16.0625
3579	-31.0625
3580	-45.0625
3581	-56.0625
3582	-61.0625
3583	-55.0625
3584	-41.0625
3585	-33.0625
3586	-23.0625
3587	-11.0625
3588	-4.0625
3589	0.9375
3590	2.9375
3591	11.9375
3592	22.9375
3593	33.9375
3594	43.9375
3595	50.9375
3596	51.9375
3597	42.9375
3598	29.9375
3599	19.9375
3600	6.9375
3601	2.9375
3602	-0.0625
3603	-7.0625
3604	-13.0625
3605	-19.0625
3606	-28.0625
3607	-35.0625
3608	-39.0625
3609	-38.0625
3610	-31.0625
3611	-22.0625
3612	-7.0625
3613	-2.0625
3614	-2.0625
3615	-4.0625
3616	-2.0625
3617	0.9375
3618	1.9375
3619	10.9375
3620	17.9375
3621	21.9375
3622	24.9375
3623	16.9375
3624	14.9375
3625	12.9375
3626	12.9375
3627	9.9375
3628	13.9375
3629	14.9375
3630	7.9375
3631	-5.0625
3632	-19.0625
3633	-26.0625
3634	-33.0625
3635	-32.0625
3636	-27.0625
3637	-11.0625
3638	4.9375
3639	12.9375
3640	18.9375
3641	21.9375
3642	18.9375
3643	20.9375
3644	17.9375
3645	14.9375
3646	11.9375
3647	5.9375
3648	-1.0625
3649	-12.0625
3650	-19.0625
3651	-25.0625
3652	-26.0625
3653	-29.0625
3654	-22.0625
3655	-18.0625
3656	-17.0625
3657	-18.0625
3658	-18.0625
3659	-13.0625
3660	-6.0625
3661	8.9375
3662	22.9375
3663	34.9375
3664	49.9375
3665	56.9375
3666	59.9375
3667	51.9375
3668	37.9375
3669	23.9375
3670	12.9375
3671	-0.0625
3672	-19.0625
3673	-32.0625
3674	-46.0625
3675	-57.0625
3676	-63.0625
3677	-66.0625
3678	-62.0625
3679	-48.0625
3680	-30.0625
3681	-14.0625
3682	7.9375
3683	23.9375
3684	31.9375
3685	40.9375
3686	45.9375
3687	47.9375
3688	48.9375
3689	47.9375
3690	42.9375
3691	33.9375
3692	18.9375
3693	1.9375
3694	-15.0625
3695	-28.0625
3696	-39.0625
3697	-46.0625
3698	-40.0625
3699	-32.0625
3700	-25.0625
3701	-16.0625
3702	-6.0625
3703	6.9375
3704	22.9375
3705	31.9375
3706	42.9375
3707	47.9375
3708	45.9375
3709	35.9375
3710	17.9375
3711	-4.0625
3712	-25.0625
3713	-44.0625
3714	-59.0625
3715	-64.0625
3716	-64.0625
3717	-55.0625
3718	-43.0625
3719	-28.0625
3720	-14.0625
3721	2.9375
3722	21.9375
3723	42.9375
3724	52.9375
3725	60.9375
3726	61.9375
3727	58.9375
3728	45.9375
3729	32.9375
3730	21.9375
3731	10.9375
3732	2.9375
3733	-4.0625
3734	-12.0625
3735	-14.0625
3736	-22.0625
3737	-26.0625
3738	-26.0625
3739	-22.0625
3740	-13.0625
3741	-5.0625
3742	-1.0625
3743	-1.0625
3744	-5.0625
3745	-7.0625
3746	-15.0625
3747	-19.0625
3748	-28.0625
3749	-32.0625
3750	-32.0625
3751	-35.0625
3752	-34.0625
3753	-31.0625
3754	-23.0625
3755	-6.0625
3756	9.9375
3757	29.9375
3758	46.9375
3759	67.9375
3760	77.9375
3761	76.9375
3762	72.9375
3763	58.9375
3764	38.9375
3765	20.9375
3766	-1.0625
3767	-18.0625
3768	-38.0625
3769	-52.0625
3770	-59.0625
3771	-58.0625
3772	-54.0625
3773	-44.0625
3774	-31.0625
3775	-12.0625
3776	1.9375
3777	13.9375
3778	16.9375
3779	18.9375
3780	16.9375
3781	14.9375
3782	15.9375
3783	16.9375
3784	10.9375
3785	7.9375
3786	3.9375
3787	-2.0625
3788	-10.0625
3789	-16.0625
3790	-21.0625
3791	-20.0625
3792	-14.0625
3793	-11.0625
3794	-7.0625
3795	-1.0625
3796	5.9375
3797	9.9375
3798	13.9375
3799	16.9375
3800	25.9375
3801	29.9375
3802	30.9375
3803	23.9375
3804	16.9375
3805	11.9375
3806	3.9375
3807	1.9375
3808	-3.0625
3809	-8.0625
3810	-13.0625
3811	-14.0625
3812	-18.0625
3813	-19.0625
3814	-31.0625
3815	-34.0625
3816	-31.0625
3817	-31.0625
3818	-28.0625
3819	-27.0625
3820	-20.0625
3821	-15.0625
3822	-5.0625
3823	9.9375
3824	24.9375
3825	42.9375
3826	54.9375
3827	68.9375
3828	74.9375
3829	64.9375
3830	49.9375
3831	31.9375
3832	10.9375
3833	-15.0625
3834	-34.0625
3835	-50.0625
3836	-63.0625
3837	-72.0625
3838	-69.0625
3839	-60.0625
3840	-42.0625
3841	-21.0625
3842	1.9375
3843	25.9375
3844	42.9375
3845	55.9375
3846	60.9375
3847	56.9375
3848	49.9375
3849	41.9375
3850	33.9375
3851	19.9375
3852	1.9375
3853	-20.0625
3854	-43.0625
3855	-67.0625
3856	-80.0625
3857	-85.0625
3858	-84.0625
3859	-72.0625
3860	-51.0625
3861	-23.0625
3862	1.9375
3863	31.9375
3864	56.9375
3865	75.9375
3866	93.9375
3867	104.938
3868	98.9375
3869	85.9375
3870	65.9375
3871	38.9375
3872	6.9375
3873	-27.0625
3874	-53.0625
3875	-76.0625
3876	-89.0625
3877	-88.0625
3878	-84.0625
3879	-76.0625
3880	-54.0625
3881	-33.0625
3882	-10.0625
3883	17.9375
3884	41.9375
3885	62.9375
3886	72.9375
3887	73.9375
3888	63.9375
3889	51.9375
3890	36.9375
3891	18.9375
3892	1.9375
3893	-12.0625
3894	-28.0625
3895	-37.0625
3896	-43.0625
3897	-47.0625
3898	-50.0625
3899	-46.0625
3900	-39.0625
3901	-29.0625
3902	-15.0625
3903	-0.0625
3904	11.9375
3905	21.9375
3906	30.9375
3907	37.9375
3908	43.9375
3909	42.9375
3910	31.9375
3911	16.9375
3912	1.9375
3913	-16.0625
3914	-27.0625
3915	-33.0625
3916	-30.0625
3917	-19.0625
3918	-8.0625
3919	3.9375
3920	17.9375
3921	29.9375
3922	36.9375
3923	38.9375
3924	38.9375
3925	32.9375
3926	24.9375
3927	10.9375
3928	-3.0625
3929	-18.0625
3930	-33.0625
3931	-39.0625
3932	-42.0625
3933	-42.0625
3934	-38.0625
3935	-34.0625
3936	-28.0625
3937	-23.0625
3938	-17.0625
3939	-11.0625
3940	0.9375
3941	10.9375
3942	20.9375
3943	27.9375
3944	27.9375
3945	26.9375
3946	22.9375
3947	24.9375
3948	19.9375
3949	19.9375
3950	14.9375
3951	9.9375
3952	5.9375
3953	-2.0625
3954	-7.0625
3955	-13.0625
3956	-12.0625
3957	-7.0625
3958	-7.0625
3959	-5.0625
3960	-3.0625
3961	-0.0625
3962	-2.0625
3963	-5.0625
3964	-6.0625
3965	-11.0625
3966	-12.0625
3967	-12.0625
3968	-15.0625
3969	-16.0625
3970	-14.0625
3971	-10.0625
3972	-1.0625
3973	11.9375
3974	24.9375
3975	34.9375
3976	41.9375
3977	40.9375
3978	27.9375
3979	13.9375
3980	-3.0625
3981	-16.0625
3982	-28.0625
3983	-34.0625
3984	-40.0625
3985	-44.0625
3986	-42.0625
3987	-33.0625
3988	-26.0625
3989	-14.0625
3990	5.9375
3991	17.9375
3992	28.9375
3993	42.9375
3994	48.9375
3995	42.9375
3996	41.9375
3997	38.9375
3998	34.9375
3999	21.9375
4000	13.9375
4001	0.9375
4002	-14.0625
4003	-31.0625
4004	-46.0625
4005	-58.0625
4006	-55.0625
4007	-51.0625
4008	-46.0625
4009	-36.0625
4010	-21.0625
4011	-2.0625
4012	15.9375
4013	34.9375
4014	47.9375
4015	58.9375
4016	63.9375
4017	59.9375
4018	46.9375
4019	28.9375
4020	5.9375
4021	-16.0625
4022	-32.0625
4023	-50.0625
4024	-58.0625
4025	-53.0625
4026	-49.0625
4027	-42.0625
4028	-30.0625
4029	-8.0625
4030	15.9375
4031	33.9375
4032	48.9375
4033	59.9375
4034	60.9375
4035	56.9375
4036	44.9375
4037	26.9375
4038	10.9375
4039	-7.0625
4040	-22.0625
4041	-35.0625
4042	-47.0625
4043	-60.0625
4044	-64.0625
4045	-65.0625
4046	-62.0625
4047	-43.0625
4048	-25.0625
4049	-1.0625
4050	22.9375
4051	38.9375
4052	54.9375
4053	64.9375
4054	68.9375
4055	65.9375
4056	60.9375
4057	45.9375
4058	26.9375
4059	-2.0625
4060	-24.0625
4061	-48.0625
4062	-64.0625
4063	-73.0625
4064	-70.0625
4065	-58.0625
4066	-42.0625
4067	-19.0625
4068	2.9375
4069	26.9375
4070	48.9375
4071	65.9375
4072	74.9375
4073	71.9375
4074	61.9375
4075	45.9375
4076	21.9375
4077	-3.0625
4078	-30.0625
4079	-52.0625
4080	-63.0625
4081	-67.0625
4082	-60.0625
4083	-54.0625
4084	-45.0625
4085	-33.0625
4086	-16.0625
4087	-0.0625
4088	19.9375
4089	36.9375
4090	46.9375
4091	58.9375
4092	57.9375
4093	49.9375
4094	36.9375
4095	23.9375
4096	8.9375
4097	-9.0625
4098	-22.0625
4099	-42.0625
4100	-51.0625
4101	-62.0625
4102	-61.0625
4103	-50.0625
4104	-36.0625
4105	-14.0625
4106	10.9375
4107	37.9375
4108	56.9375
4109	68.9375
4110	71.9375
4111	72.9375
4112	58.9375
4113	43.9375
4114	25.9375
4115	2.9375
4116	-18.0625
4117	-37.0625
4118	-52.0625
4119	-63.0625
4120	-68.0625
4121	-64.0625
4122	-55.0625
4123	-42.0625
4124	-27.0625
4125	-8.0625
4126	6.9375
4127	22.9375
4128	32.9375
4129	38.9375
4130	40.9375
4131	38.9375
4132	32.9375
4133	23.9375
4134	12.9375
4135	2.9375
4136	-6.0625
4137	-14.0625
4138	-21.0625
4139	-20.0625
4140	-22.0625
4141	-23.0625
4142	-20.0625
4143	-13.0625
4144	-2.0625
4145	3.9375
4146	13.9375
4147	18.9375
4148	24.9375
4149	26.9375
4150	27.9375
4151	24.9375
4152	20.9375
4153	15.9375
4154	5.9375
4155	-8.0625
4156	-18.0625
4157	-26.0625
4158	-30.0625
4159	-29.0625
4160	-26.0625
4161	-20.0625
4162	-8.0625
4163	1.9375
4164	6.9375
4165	12.9375
4166	14.9375
4167	12.9375
4168	12.9375
4169	9.9375
4170	6.9375
4171	4.9375
4172	-3.0625
4173	-5.0625
4174	-9.0625
4175	-8.0625
4176	-9.0625
4177	-4.0625
4178	-0.0625
4179	1.9375
4180	2.9375
4181	-3.0625
4182	-5.0625
4183	-7.0625
4184	-9.0625
4185	-7.0625
4186	-1.0625
4187	4.9375
4188	7.9375
4189	8.9375
4190	10.9375
4191	9.9375
4192	6.9375
4193	6.9375
4194	9.9375
4195	8.9375
4196	8.9375
4197	4.9375
4198	3.9375
4199	0.9375
4200	-3.0625
4201	-2.0625
4202	-0.0625
4203	-0.0625
4204	1.9375
4205	-1.0625
4206	-9.0625
4207	-21.0625
4208	-25.0625
4209	-27.0625
4210	-28.0625
4211	-26.0625
4212	-18.0625
4213	-10.0625
4214	-1.0625
4215	5.9375
4216	14.9375
4217	19.9375
4218	29.9375
4219	34.9375
4220	40.9375
4221	39.9375
4222	29.9375
4223	22.9375
4224	16.9375
4225	6.9375
4226	-5.0625
4227	-17.0625
4228	-19.0625
4229	-17.0625
4230	-20.0625
4231	-24.0625
4232	-27.0625
4233	-32.0625
4234	-31.0625
4235	-23.0625
4236	-16.0625
4237	-9.0625
4238	0.9375
4239	5.9375
4240	13.9375
4241	12.9375
4242	18.9375
4243	18.9375
4244	20.9375
4245	19.9375
4246	15.9375
4247	6.9375
4248	-2.0625
4249	-7.0625
4250	-13.0625
4251	-18.0625
4252	-16.0625
4253	-16.0625
4254	-11.0625
4255	-1.0625
4256	9.9375
4257	16.9375
4258	20.9375
4259	26.9375
4260	27.9375
4261	25.9375
4262	21.9375
4263	14.9375
4264	4.9375
4265	-0.0625
4266	-7.0625
4267	-13.0625
4268	-19.0625
4269	-20.0625
4270	-20.0625
4271	-20.0625
4272	-19.0625
4273	-14.0625
4274	-13.0625
4275	-12.0625
4276	-14.0625
4277	-14.0625
4278	-10.0625
4279	-2.0625
4280	-5.0625
4281	-2.0625
4282	-0.0625
4283	1.9375
4284	2.9375
4285	4.9375
4286	6.9375
4287	9.9375
4288	12.9375
4289	15.9375
4290	16.9375
4291	19.9375
4292	21.9375
4293	21.9375
4294	24.9375
4295	21.9375
4296	17.9375
4297	17.9375
4298	12.9375
4299	2.9375
4300	-6.0625
4301	-16.0625
4302	-23.0625
4303	-27.0625
4304	-31.0625
4305	-29.0625
4306	-24.0625
4307	-21.0625
4308	-14.0625
4309	-7.0625
4310	-4.0625
4311	3.9375
4312	6.9375
4313	10.9375
4314	9.9375
4315	10.9375
4316	8.9375
4317	3.9375
4318	-3.0625
4319	-8.0625
4320	-10.0625
4321	-13.0625
4322	-9.0625
4323	-3.0625
4324	2.9375
4325	9.9375
4326	15.9375
4327	21.9375
4328	24.9375
4329	25.9375
4330	25.9375
4331	21.9375
4332	11.9375
4333	5.9375
4334	-0.0625
4335	-8.0625
4336	-13.0625
4337	-15.0625
4338	-18.0625
4339	-22.0625
4340	-24.0625
4341	-22.0625
4342	-19.0625
4343	-16.0625
4344	-12.0625
4345	-7.0625
4346	-4.0625
4347	5.9375
4348	10.9375
4349	17.9375
4350	23.9375
4351	25.9375
4352	25.9375
4353	20.9375
4354	17.9375
4355	6.9375
4356	-3.0625
4357	-9.0625
4358	-14.0625
4359	-15.0625
4360	-15.0625
4361	-11.0625
4362	-7.0625
4363	-6.0625
4364	-2.0625
4365	1.9375
4366	5.9375
4367	7.9375
4368	9.9375
4369	8.9375
4370	2.9375
4371	-0.0625
4372	-4.0625
4373	-7.0625
4374	-11.0625
4375	-9.0625
4376	-5.0625
4377	-6.0625
4378	-4.0625
4379	-0.0625
4380	-2.0625
4381	0.9375
4382	2.9375
4383	3.9375
4384	7.9375
4385	5.9375
4386	4.9375
4387	3.9375
4388	1.9375
4389	1.9375
4390	1.9375
4391	-1.0625
4392	4.9375
4393	5.9375
4394	5.9375
4395	10.9375
4396	8.9375
4397	5.9375
4398	2.9375
4399	-1.0625
4400	-5.0625
4401	-9.0625
4402	-10.0625
4403	-8.0625
4404	-10.0625
4405	-10.0625
4406	-12.0625
4407	-6.0625
4408	-7.0625
4409	-5.0625
4410	-1.0625
4411	0.9375
4412	1.9375
4413	4.9375
4414	6.9375
4415	8.9375
4416	12.9375
4417	16.9375
4418	15.9375
4419	17.9375
4420	11.9375
4421	1.9375
4422	-5.0625
4423	-16.0625
4424	-23.0625
4425	-28.0625
4426	-26.0625
4427	-23.0625
4428	-21.0625
4429	-10.0625
4430	-2.0625
4431	6.9375
4432	14.9375
4433	17.9375
4434	25.9375
4435	29.9375
4436	28.9375
4437	22.9375
4438	17.9375
4439	7.9375
4440	-2.0625
4441	-9.0625
4442	-14.0625
4443	-17.0625
4444	-16.0625
4445	-19.0625
4446	-15.0625
4447	-13.0625
4448	-14.0625
4449	-8.0625
4450	-0.0625
4451	4.9375
4452	10.9375
4453	15.9375
4454	16.9375
4455	16.9375
4456	16.9375
4457	13.9375
4458	9.9375
4459	4.9375
4460	2.9375
4461	0.9375
4462	-7.0625
4463	-13.0625
4464	-14.0625
4465	-21.0625
4466	-24.0625
4467	-23.0625
4468	-20.0625
4469	-17.0625
4470	-7.0625
4471	-6.0625
4472	-3.0625
4473	6.9375
4474	10.9375
4475	14.9375
4476	14.9375
4477	10.9375
4478	12.9375
4479	10.9375
4480	8.9375
4481	8.9375
4482	10.9375
4483	13.9375
4484	13.9375
4485	12.9375
4486	12.9375
4487	9.9375
4488	8.9375
4489	4.9375
4490	-1.0625
4491	-10.0625
4492	-15.0625
4493	-16.0625
4494	-20.0625
4495	-24.0625
4496	-24.0625
4497	-18.0625
4498	-10.0625
4499	-3.0625
4500	2.9375
4501	2.9375
4502	0.9375
4503	1.9375
4504	2.9375
4505	2.9375
4506	2.9375
4507	2.9375
4508	2.9375
4509	3.9375
4510	-1.0625
4511	-4.0625
4512	-3.0625
4513	-5.0625
4514	-1.0625
4515	8.9375
4516	8.9375
4517	6.9375
4518	7.9375
4519	6.9375
4520	4.9375
4521	5.9375
4522	3.9375
4523	3.9375
4524	5.9375
4525	3.9375
4526	0.9375
4527	-1.0625
4528	-6.0625
4529	-10.0625
4530	-11.0625
4531	-11.0625
4532	-11.0625
4533	-12.0625
4534	-10.0625
4535	-11.0625
4536	-9.0625
4537	-6.0625
4538	-1.0625
4539	4.9375
4540	10.9375
4541	12.9375
4542	10.9375
4543	10.9375
4544	2.9375
4545	1.9375
4546	-1.0625
4547	-0.0625
4548	-0.0625
4549	-1.0625
4550	2.9375
4551	6.9375
4552	10.9375
4553	10.9375
4554	10.9375
4555	11.9375
4556	9.9375
4557	6.9375
4558	0.9375
4559	-7.0625
4560	-16.0625
4561	-24.0625
4562	-27.0625
4563	-26.0625
4564	-25.0625
4565	-21.0625
4566	-18.0625
4567	-13.0625
4568	-13.0625
4569	-1.0625
4570	5.9375
4571	12.9375
4572	21.9375
4573	25.9375
4574	31.9375
4575	29.9375
4576	27.9375
4577	27.9375
4578	20.9375
4579	16.9375
4580	10.9375
4581	6.9375
4582	1.9375
4583	-5.0625
4584	-15.0625
4585	-23.0625
4586	-30.0625
4587	-34.0625
4588	-34.0625
4589	-26.0625
4590	-20.0625
4591	-11.0625
4592	-3.0625
4593	5.9375
4594	10.9375
4595	17.9375
4596	22.9375
4597	27.9375
4598	25.9375
4599	23.9375
4600	17.9375
4601	9.9375
4602	-1.0625
4603	-13.0625
4604	-18.0625
4605	-19.0625
4606	-20.0625
4607	-24.0625
4608	-24.0625
4609	-22.0625
4610	-19.0625
4611	-17.0625
4612	-11.0625
4613	-1.0625
4614	6.9375
4615	12.9375
4616	22.9375
4617	28.9375
4618	34.9375
4619	35.9375
4620	35.9375
4621	32.9375
4622	23.9375
4623	9.9375
4624	-4.0625
4625	-13.0625
4626	-25.0625
4627	-33.0625
4628	-43.0625
4629	-42.0625
4630	-35.0625
4631	-29.0625
4632	-18.0625
4633	-5.0625
4634	6.9375
4635	18.9375
4636	26.9375
4637	31.9375
4638	31.9375
4639	30.9375
4640	27.9375
4641	21.9375
4642	12.9375
4643	1.9375
4644	-5.0625
4645	-14.0625
4646	-22.0625
4647	-22.0625
4648	-23.0625
4649	-19.0625
4650	-15.0625
4651	-10.0625
4652	-5.0625
4653	-3.0625
4654	3.9375
4655	7.9375
4656	6.9375
4657	3.9375
4658	2.9375
4659	0.9375
4660	-2.0625
4661	-6.0625
4662	-8.0625
4663	-7.0625
4664	-10.0625
4665	-12.0625
4666	-10.0625
4667	-3.0625
4668	-1.0625
4669	4.9375
4670	9.9375
4671	18.9375
4672	20.9375
4673	24.9375
4674	21.9375
4675	19.9375
4676	17.9375
4677	10.9375
4678	3.9375
4679	-2.0625
4680	-6.0625
4681	-11.0625
4682	-16.0625
4683	-16.0625
4684	-8.0625
4685	-5.0625
4686	1.9375
4687	6.9375
4688	10.9375
4689	7.9375
4690	1.9375
4691	-6.0625
4692	-13.0625
4693	-22.0625
4694	-24.0625
4695	-25.0625
4696	-25.0625
4697	-25.0625
4698	-26.0625
4699	-18.0625
4700	-6.0625
4701	4.9375
4702	19.9375
4703	28.9375
4704	37.9375
4705	43.9375
4706	41.9375
4707	35.9375
4708	30.9375
4709	19.9375
4710	12.9375
4711	6.9375
4712	-3.0625
4713	-10.0625
4714	-21.0625
4715	-31.0625
4716	-36.0625
4717	-33.0625
4718	-29.0625
4719	-21.0625
4720	-13.0625
4721	-3.0625
4722	0.9375
4723	3.9375
4724	9.9375
4725	13.9375
4726	14.9375
4727	17.9375
4728	19.9375
4729	18.9375
4730	9.9375
4731	1.9375
4732	-9.0625
4733	-17.0625
4734	-20.0625
4735	-26.0625
4736	-24.0625
4737	-16.0625
4738	-13.0625
4739	-3.0625
4740	3.9375
4741	11.9375
4742	19.9375
4743	24.9375
4744	29.9375
4745	33.9375
4746	30.9375
4747	27.9375
4748	16.9375
4749	5.9375
4750	-4.0625
4751	-15.0625
4752	-21.0625
4753	-26.0625
4754	-24.0625
4755	-25.0625
4756	-26.0625
4757	-28.0625
4758	-25.0625
4759	-20.0625
4760	-10.0625
4761	-7.0625
4762	1.9375
4763	10.9375
4764	15.9375
4765	13.9375
4766	18.9375
4767	21.9375
4768	23.9375
4769	22.9375
4770	19.9375
4771	15.9375
4772	10.9375
4773	0.9375
4774	-6.0625
4775	-11.0625
4776	-11.0625
4777	-13.0625
4778	-9.0625
4779	-3.0625
4780	1.9375
4781	4.9375
4782	7.9375
4783	9.9375
4784	9.9375
4785	8.9375
4786	5.9375
4787	3.9375
4788	1.9375
4789	-5.0625
4790	-12.0625
4791	-21.0625
4792	-25.0625
4793	-25.0625
4794	-26.0625
4795	-19.0625
4796	-10.0625
4797	-5.0625
4798	-2.0625
4799	2.9375
4800	5.9375
4801	6.9375
4802	13.9375
4803	18.9375
4804	21.9375
4805	24.9375
4806	25.9375
4807	20.9375
4808	12.9375
4809	9.9375
4810	1.9375
4811	-5.0625
4812	-5.0625
4813	-11.0625
4814	-14.0625
4815	-19.0625
4816	-19.0625
4817	-19.0625
4818	-15.0625
4819	-9.0625
4820	1.9375
4821	10.9375
4822	16.9375
4823	19.9375
4824	23.9375
4825	21.9375
4826	18.9375
4827	16.9375
4828	9.9375
4829	3.9375
4830	-6.0625
4831	-12.0625
4832	-16.0625
4833	-24.0625
4834	-26.0625
4835	-25.0625
4836	-17.0625
4837	-12.0625
4838	-7.0625
4839	-5.0625
4840	2.9375
4841	6.9375
4842	11.9375
4843	12.9375
4844	12.9375
4845	15.9375
4846	12.9375
4847	12.9375
4848	14.9375
4849	11.9375
4850	3.9375
4851	-3.0625
4852	-5.0625
4853	-11.0625
4854	-20.0625
4855	-17.0625
4856	-15.0625
4857	-16.0625
4858	-15.0625
4859	-8.0625
4860	2.9375
4861	10.9375
4862	13.9375
4863	18.9375
4864	24.9375
4865	25.9375
4866	20.9375
4867	16.9375
4868	11.9375
4869	2.9375
4870	-2.0625
4871	-5.0625
4872	-5.0625
4873	-8.0625
4874	-9.0625
4875	-13.0625
4876	-15.0625
4877	-11.0625
4878	-8.0625
4879	-5.0625
4880	-7.0625
4881	-7.0625
4882	-10.0625
4883	-12.0625
4884	-9.0625
4885	-7.0625
4886	-10.0625
4887	-7.0625
4888	0.9375
4889	4.9375
4890	12.9375
4891	15.9375
4892	21.9375
4893	22.9375
4894	17.9375
4895	14.9375
4896	13.9375
4897	9.9375
4898	4.9375
4899	5.9375
4900	8.9375
4901	-4.0625
4902	-6.0625
4903	-9.0625
4904	-13.0625
4905	-12.0625
4906	-14.0625
4907	-14.0625
4908	-17.0625
4909	-12.0625
4910	-12.0625
4911	-13.0625
4912	-8.0625
4913	-3.0625
4914	4.9375
4915	11.9375
4916	19.9375
4917	21.9375
4918	16.9375
4919	17.9375
4920	12.9375
4921	4.9375
4922	-1.0625
4923	-8.0625
4924	-14.0625
4925	-14.0625
4926	-17.0625
4927	-12.0625
4928	-11.0625
4929	-6.0625
4930	-2.0625
4931	5.9375
4932	11.9375
4933	20.9375
4934	23.9375
4935	21.9375
4936	18.9375
4937	13.9375
4938	8.9375
4939	2.9375
4940	-4.0625
4941	-5.0625
4942	-8.0625
4943	-13.0625
4944	-16.0625
4945	-19.0625
4946	-21.0625
4947	-20.0625
4948	-21.0625
4949	-22.0625
4950	-17.0625
4951	-12.0625
4952	-4.0625
4953	-0.0625
4954	10.9375
4955	14.9375
4956	20.9375
4957	28.9375
4958	29.9375
4959	29.9375
4960	23.9375
4961	16.9375
4962	8.9375
4963	-1.0625
4964	-11.0625
4965	-17.0625
4966	-17.0625
4967	-13.0625
4968	-12.0625
4969	-7.0625
4970	-3.0625
4971	5.9375
4972	9.9375
4973	12.9375
4974	11.9375
4975	15.9375
4976	14.9375
4977	8.9375
4978	0.9375
4979	-4.0625
4980	-14.0625
4981	-20.0625
4982	-21.0625
4983	-23.0625
4984	-24.0625
4985	-22.0625
4986	-20.0625
4987	-17.0625
4988	-10.0625
4989	-1.0625
4990	6.9375
4991	9.9375
4992	15.9375
4993	20.9375
4994	20.9375
4995	19.9375
4996	19.9375
4997	15.9375
4998	10.9375
4999	6.9375
5000	1.9375
5001	-3.0625
5002	-7.0625
5003	-13.0625
5004	-17.0625
5005	-13.0625
5006	-8.0625
5007	-2.0625
5008	5.9375
5009	9.9375
5010	15.9375
5011	18.9375
5012	13.9375
5013	17.9375
5014	11.9375
5015	2.9375
5016	-8.0625
5017	-17.0625
5018	-25.0625
5019	-29.0625
5020	-30.0625
5021	-30.0625
5022	-23.0625
5023	-14.0625
5024	-4.0625
5025	6.9375
5026	14.9375
5027	21.9375
5028	22.9375
5029	20.9375
5030	20.9375
5031	13.9375
5032	8.9375
5033	1.9375
5034	-3.0625
5035	-6.0625
5036	-13.0625
5037	-17.0625
5038	-16.0625
5039	-13.0625
5040	-6.0625
5041	-0.0625
5042	6.9375
5043	9.9375
5044	9.9375
5045	10.9375
5046	9.9375
5047	8.9375
5048	10.9375
5049	10.9375
5050	4.9375
5051	-5.0625
5052	-10.0625
5053	-14.0625
5054	-19.0625
5055	-16.0625
5056	-17.0625
5057	-11.0625
5058	-0.0625
5059	4.9375
5060	12.9375
5061	20.9375
5062	23.9375
5063	23.9375
5064	21.9375
5065	22.9375
5066	18.9375
5067	8.9375
5068	-3.0625
5069	-18.0625
5070	-29.0625
5071	-38.0625
5072	-46.0625
5073	-45.0625
5074	-41.0625
5075	-27.0625
5076	-10.0625
5077	0.9375
5078	14.9375
5079	26.9375
5080	35.9375
5081	40.9375
5082	44.9375
5083	44.9375
5084	36.9375
5085	23.9375
5086	7.9375
5087	-6.0625
5088	-20.0625
5089	-34.0625
5090	-42.0625
5091	-44.0625
5092	-40.0625
5093	-29.0625
5094	-18.0625
5095	-8.0625
5096	-4.0625
5097	9.9375
5098	20.9375
5099	29.9375
5100	35.9375
5101	38.9375
5102	39.9375
5103	33.9375
5104	22.9375
5105	11.9375
5106	-3.0625
5107	-15.0625
5108	-28.0625
5109	-30.0625
5110	-37.0625
5111	-37.0625
5112	-34.0625
5113	-31.0625
5114	-24.0625
5115	-16.0625
5116	0.9375
5117	11.9375
5118	26.9375
5119	36.9375
5120	42.9375
5121	40.9375
5122	33.9375
5123	21.9375
5124	9.9375
5125	-1.0625
5126	-7.0625
5127	-14.0625
5128	-22.0625
5129	-26.0625
5130	-27.0625
5131	-26.0625
5132	-22.0625
5133	-19.0625
5134	-11.0625
5135	1.9375
5136	11.9375
5137	14.9375
5138	19.9375
5139	19.9375
5140	14.9375
5141	11.9375
5142	11.9375
5143	7.9375
5144	6.9375
5145	1.9375
5146	0.9375
5147	-1.0625
5148	-4.0625
5149	-13.0625
5150	-16.0625
5151	-15.0625
5152	-12.0625
5153	-10.0625
5154	-5.0625
5155	-0.0625
5156	9.9375
5157	11.9375
5158	13.9375
5159	13.9375
5160	12.9375
5161	16.9375
5162	14.9375
5163	15.9375
5164	10.9375
5165	3.9375
5166	-8.0625
5167	-14.0625
5168	-20.0625
5169	-23.0625
5170	-21.0625
5171	-16.0625
5172	-10.0625
5173	-8.0625
5174	-7.0625
5175	-5.0625
5176	-6.0625
5177	-7.0625
5178	-2.0625
5179	2.9375
5180	5.9375
5181	11.9375
5182	10.9375
5183	10.9375
5184	7.9375
5185	5.9375
5186	6.9375
5187	5.9375
5188	7.9375
5189	8.9375
5190	10.9375
5191	6.9375
5192	-1.0625
5193	-6.0625
5194	-13.0625
5195	-11.0625
5196	-6.0625
5197	-0.0625
5198	0.9375
5199	1.9375
5200	5.9375
5201	6.9375
5202	4.9375
5203	1.9375
5204	3.9375
5205	4.9375
5206	7.9375
5207	6.9375
5208	2.9375
5209	-1.0625
5210	-4.0625
5211	-10.0625
5212	-8.0625
5213	-6.0625
5214	-5.0625
5215	-3.0625
5216	-6.0625
5217	-7.0625
5218	-6.0625
5219	-14.0625
5220	-17.0625
5221	-17.0625
5222	-4.0625
5223	-0.0625
5224	7.9375
5225	8.9375
5226	13.9375
5227	9.9375
5228	7.9375
5229	11.9375
5230	14.9375
5231	13.9375
5232	13.9375
5233	14.9375
5234	7.9375
5235	-1.0625
5236	-10.0625
5237	-14.0625
5238	-10.0625
5239	-10.0625
5240	-2.0625
5241	-3.0625
5242	-8.0625
5243	0.9375
5244	-0.0625
5245	-4.0625
5246	-4.0625
5247	0.9375
5248	6.9375
5249	8.9375
5250	9.9375
5251	11.9375
5252	10.9375
5253	12.9375
5254	6.9375
5255	0.9375
5256	-3.0625
5257	-5.0625
5258	-3.0625
5259	-11.0625
5260	-18.0625
5261	-23.0625
5262	-26.0625
5263	-24.0625
5264	-19.0625
5265	-15.0625
5266	-6.0625
5267	5.9375
5268	12.9375
5269	20.9375
5270	22.9375
5271	27.9375
5272	28.9375
5273	23.9375
5274	18.9375
5275	16.9375
5276	9.9375
5277	0.9375
5278	-3.0625
5279	-14.0625
5280	-23.0625
5281	-29.0625
5282	-31.0625
5283	-28.0625
5284	-22.0625
5285	-18.0625
5286	-13.0625
5287	-2.0625
5288	7.9375
5289	17.9375
5290	23.9375
5291	30.9375
5292	36.9375
5293	36.9375
5294	29.9375
5295	22.9375
5296	11.9375
5297	-4.0625
5298	-18.0625
5299	-29.0625
5300	-37.0625
5301	-42.0625
5302	-40.0625
5303	-35.0625
5304	-28.0625
5305	-18.0625
5306	-4.0625
5307	7.9375
5308	22.9375
5309	36.9375
5310	42.9375
5311	49.9375
5312	47.9375
5313	41.9375
5314	28.9375
5315	10.9375
5316	-6.0625
5317	-19.0625
5318	-31.0625
5319	-44.0625
5320	-49.0625
5321	-49.0625
5322	-42.0625
5323	-31.0625
5324	-27.0625
5325	-12.0625
5326	2.9375
5327	18.9375
5328	33.9375
5329	44.9375
5330	49.9375
5331	46.9375
5332	39.9375
5333	30.9375
5334	20.9375
5335	6.9375
5336	-10.0625
5337	-20.0625
5338	-32.0625
5339	-41.0625
5340	-41.0625
5341	-42.0625
5342	-35.0625
5343	-25.0625
5344	-9.0625
5345	7.9375
5346	23.9375
5347	38.9375
5348	46.9375
5349	48.9375
5350	46.9375
5351	38.9375
5352	26.9375
5353	12.9375
5354	-0.0625
5355	-17.0625
5356	-31.0625
5357	-37.0625
5358	-44.0625
5359	-47.0625
5360	-43.0625
5361	-30.0625
5362	-23.0625
5363	-10.0625
5364	2.9375
5365	14.9375
5366	18.9375
5367	27.9375
5368	29.9375
5369	31.9375
5370	25.9375
5371	20.9375
5372	10.9375
5373	-0.0625
5374	-11.0625
5375	-15.0625
5376	-20.0625
5377	-22.0625
5378	-20.0625
5379	-21.0625
5380	-9.0625
5381	-2.0625
5382	7.9375
5383	14.9375
5384	19.9375
5385	22.9375
5386	27.9375
5387	29.9375
5388	27.9375
5389	19.9375
5390	9.9375
5391	-0.0625
5392	-9.0625
5393	-18.0625
5394	-28.0625
5395	-34.0625
5396	-32.0625
5397	-29.0625
5398	-23.0625
5399	-17.0625
5400	-9.0625
5401	0.9375
5402	10.9375
5403	19.9375
5404	24.9375
5405	25.9375
5406	28.9375
5407	23.9375
5408	17.9375
5409	9.9375
5410	2.9375
5411	-4.0625
5412	-12.0625
5413	-14.0625
5414	-17.0625
5415	-21.0625
5416	-21.0625
5417	-17.0625
5418	-15.0625
5419	-8.0625
5420	-7.0625
5421	-2.0625
5422	4.9375
5423	7.9375
5424	14.9375
5425	22.9375
5426	24.9375
5427	21.9375
5428	20.9375
5429	16.9375
5430	12.9375
5431	4.9375
5432	1.9375
5433	-2.0625
5434	-12.0625
5435	-19.0625
5436	-21.0625
5437	-24.0625
5438	-22.0625
5439	-21.0625
5440	-14.0625
5441	-10.0625
5442	-1.0625
5443	1.9375
5444	9.9375
5445	11.9375
5446	11.9375
5447	12.9375
5448	17.9375
5449	17.9375
5450	13.9375
5451	7.9375
5452	4.9375
5453	-2.0625
5454	-9.0625
5455	-14.0625
5456	-15.0625
5457	-15.0625
5458	-15.0625
5459	-12.0625
5460	-11.0625
5461	-9.0625
5462	-5.0625
5463	-0.0625
5464	4.9375
5465	10.9375
5466	16.9375
5467	22.9375
5468	26.9375
5469	20.9375
5470	17.9375
5471	7.9375
5472	-1.0625
5473	-6.0625
5474	-12.0625
5475	-17.0625
5476	-19.0625
5477	-21.0625
5478	-25.0625
5479	-23.0625
5480	-19.0625
5481	-10.0625
5482	-1.0625
5483	8.9375
5484	16.9375
5485	24.9375
5486	27.9375
5487	26.9375
5488	22.9375
5489	20.9375
5490	13.9375
5491	7.9375
5492	-1.0625
5493	-7.0625
5494	-14.0625
5495	-20.0625
5496	-21.0625
5497	-27.0625
5498	-25.0625
5499	-16.0625
5500	-11.0625
5501	-3.0625
5502	6.9375
5503	10.9375
5504	11.9375
5505	14.9375
5506	19.9375
5507	22.9375
5508	18.9375
5509	16.9375
5510	10.9375
5511	-0.0625
5512	-10.0625
5513	-21.0625
5514	-28.0625
5515	-32.0625
5516	-33.0625
5517	-29.0625
5518	-23.0625
5519	-17.0625
5520	-9.0625
5521	3.9375
5522	14.9375
5523	20.9375
5524	30.9375
5525	37.9375
5526	41.9375
5527	38.9375
5528	31.9375
5529	21.9375
5530	10.9375
5531	-3.0625
5532	-14.0625
5533	-23.0625
5534	-28.0625
5535	-30.0625
5536	-30.0625
5537	-33.0625
5538	-25.0625
5539	-17.0625
5540	-11.0625
5541	0.9375
5542	13.9375
5543	20.9375
5544	25.9375
5545	29.9375
5546	31.9375
5547	25.9375
5548	17.9375
5549	6.9375
5550	-2.0625
5551	-12.0625
5552	-24.0625
5553	-31.0625
5554	-32.0625
5555	-36.0625
5556	-33.0625
5557	-26.0625
5558	-15.0625
5559	-7.0625
5560	9.9375
5561	18.9375
5562	26.9375
5563	35.9375
5564	36.9375
5565	38.9375
5566	33.9375
5567	24.9375
5568	16.9375
5569	2.9375
5570	-7.0625
5571	-19.0625
5572	-25.0625
5573	-29.0625
5574	-26.0625
5575	-24.0625
5576	-21.0625
5577	-14.0625
5578	-6.0625
5579	-1.0625
5580	5.9375
5581	15.9375
5582	22.9375
5583	23.9375
5584	17.9375
5585	14.9375
5586	8.9375
5587	5.9375
5588	1.9375
5589	-7.0625
5590	-8.0625
5591	-14.0625
5592	-16.0625
5593	-16.0625
5594	-15.0625
5595	-15.0625
5596	-12.0625
5597	-7.0625
5598	-4.0625
5599	2.9375
5600	6.9375
5601	14.9375
5602	13.9375
5603	14.9375
5604	11.9375
5605	8.9375
5606	5.9375
5607	5.9375
5608	0.9375
5609	-5.0625
5610	-7.0625
5611	-8.0625
5612	-9.0625
5613	-9.0625
5614	-4.0625
5615	-1.0625
5616	1.9375
5617	3.9375
5618	5.9375
5619	-1.0625
5620	-2.0625
5621	-1.0625
5622	0.9375
5623	0.9375
5624	-0.0625
5625	-2.0625
5626	0.9375
5627	3.9375
5628	2.9375
5629	4.9375
5630	5.9375
5631	6.9375
5632	8.9375
5633	8.9375
5634	6.9375
5635	-3.0625
5636	-8.0625
5637	-7.0625
5638	-13.0625
5639	-15.0625
5640	-15.0625
5641	-13.0625
5642	-14.0625
5643	-10.0625
5644	-11.0625
5645	-9.0625
5646	-5.0625
5647	5.9375
5648	10.9375
5649	15.9375
5650	18.9375
5651	19.9375
5652	21.9375
5653	17.9375
5654	14.9375
5655	10.9375
5656	7.9375
5657	1.9375
5658	-2.0625
5659	-8.0625
5660	-15.0625
5661	-20.0625
5662	-25.0625
5663	-25.0625
5664	-26.0625
5665	-21.0625
5666	-12.0625
5667	-3.0625
5668	6.9375
5669	11.9375
5670	19.9375
5671	23.9375
5672	27.9375
5673	29.9375
5674	30.9375
5675	24.9375
5676	16.9375
5677	5.9375
5678	-4.0625
5679	-12.0625
5680	-23.0625
5681	-27.0625
5682	-27.0625
5683	-26.0625
5684	-24.0625
5685	-21.0625
5686	-16.0625
5687	-8.0625
5688	-4.0625
5689	5.9375
5690	12.9375
5691	20.9375
5692	30.9375
5693	34.9375
5694	32.9375
5695	29.9375
5696	24.9375
5697	16.9375
5698	5.9375
5699	-9.0625
5700	-20.0625
5701	-30.0625
5702	-40.0625
5703	-43.0625
5704	-44.0625
5705	-44.0625
5706	-38.0625
5707	-25.0625
5708	-11.0625
5709	5.9375
5710	20.9375
5711	40.9375
5712	49.9375
5713	52.9375
5714	52.9375
5715	48.9375
5716	42.9375
5717	29.9375
5718	15.9375
5719	-0.0625
5720	-15.0625
5721	-28.0625
5722	-43.0625
5723	-48.0625
5724	-52.0625
5725	-48.0625
5726	-38.0625
5727	-23.0625
5728	-9.0625
5729	4.9375
5730	14.9375
5731	30.9375
5732	41.9375
5733	42.9375
5734	44.9375
5735	40.9375
5736	33.9375
5737	18.9375
5738	5.9375
5739	-9.0625
5740	-27.0625
5741	-40.0625
5742	-50.0625
5743	-53.0625
5744	-49.0625
5745	-44.0625
5746	-32.0625
5747	-19.0625
5748	-5.0625
5749	13.9375
5750	27.9375
5751	36.9375
5752	47.9375
5753	52.9375
5754	53.9375
5755	48.9375
5756	34.9375
5757	18.9375
5758	4.9375
5759	-12.0625
5760	-21.0625
5761	-31.0625
5762	-33.0625
5763	-38.0625
5764	-35.0625
5765	-30.0625
5766	-24.0625
5767	-11.0625
5768	-0.0625
5769	8.9375
5770	14.9375
5771	23.9375
5772	25.9375
5773	24.9375
5774	23.9375
5775	14.9375
5776	13.9375
5777	10.9375
5778	4.9375
5779	-4.0625
5780	-11.0625
5781	-19.0625
5782	-23.0625
5783	-28.0625
5784	-31.0625
5785	-25.0625
5786	-16.0625
5787	-14.0625
5788	-5.0625
5789	2.9375
5790	10.9375
5791	16.9375
5792	20.9375
5793	24.9375
5794	26.9375
5795	23.9375
5796	21.9375
5797	14.9375
5798	6.9375
5799	-0.0625
5800	-6.0625
5801	-11.0625
5802	-18.0625
5803	-15.0625
5804	-19.0625
5805	-15.0625
5806	-16.0625
5807	-16.0625
5808	-10.0625
5809	-6.0625
5810	1.9375
5811	6.9375
5812	10.9375
5813	15.9375
5814	20.9375
5815	21.9375
5816	21.9375
5817	20.9375
5818	22.9375
5819	16.9375
5820	9.9375
5821	2.9375
5822	-6.0625
5823	-16.0625
5824	-25.0625
5825	-30.0625
5826	-34.0625
5827	-32.0625
5828	-29.0625
5829	-20.0625
5830	-19.0625
5831	-10.0625
5832	1.9375
5833	15.9375
5834	27.9375
5835	29.9375
5836	34.9375
5837	32.9375
5838	33.9375
5839	25.9375
5840	14.9375
5841	5.9375
5842	-4.0625
5843	-14.0625
5844	-18.0625
5845	-29.0625
5846	-29.0625
5847	-33.0625
5848	-31.0625
5849	-27.0625
5850	-21.0625
5851	-9.0625
5852	1.9375
5853	13.9375
5854	25.9375
5855	31.9375
5856	31.9375
5857	32.9375
5858	29.9375
5859	21.9375
5860	16.9375
5861	8.9375
5862	-2.0625
5863	-13.0625
5864	-22.0625
5865	-30.0625
5866	-32.0625
5867	-34.0625
5868	-25.0625
5869	-19.0625
5870	-2.0625
5871	8.9375
5872	15.9375
5873	24.9375
5874	24.9375
5875	29.9375
5876	25.9375
5877	20.9375
5878	13.9375
5879	2.9375
5880	-10.0625
5881	-17.0625
5882	-25.0625
5883	-29.0625
5884	-28.0625
5885	-25.0625
5886	-23.0625
5887	-14.0625
5888	-6.0625
5889	4.9375
5890	12.9375
5891	16.9375
5892	19.9375
5893	20.9375
5894	17.9375
5895	15.9375
5896	12.9375
5897	5.9375
5898	-3.0625
5899	-13.0625
5900	-19.0625
5901	-21.0625
5902	-24.0625
5903	-18.0625
5904	-10.0625
5905	-3.0625
5906	4.9375
5907	7.9375
5908	15.9375
5909	21.9375
5910	26.9375
5911	33.9375
5912	33.9375
5913	25.9375
5914	19.9375
5915	8.9375
5916	-6.0625
5917	-15.0625
5918	-28.0625
5919	-31.0625
5920	-32.0625
5921	-27.0625
5922	-22.0625
5923	-20.0625
5924	-13.0625
5925	-5.0625
5926	3.9375
5927	10.9375
5928	16.9375
5929	19.9375
5930	17.9375
5931	15.9375
5932	11.9375
5933	5.9375
5934	-4.0625
5935	-12.0625
5936	-16.0625
5937	-17.0625
5938	-11.0625
5939	-11.0625
5940	-7.0625
5941	-2.0625
5942	1.9375
5943	5.9375
5944	12.9375
5945	14.9375
5946	14.9375
5947	14.9375
5948	17.9375
5949	18.9375
5950	14.9375
5951	10.9375
5952	6.9375
5953	-1.0625
5954	-6.0625
5955	-7.0625
5956	-13.0625
5957	-15.0625
5958	-15.0625
5959	-16.0625
5960	-17.0625
5961	-14.0625
5962	-7.0625
5963	2.9375
5964	6.9375
5965	9.9375
5966	12.9375
5967	13.9375
5968	11.9375
5969	10.9375
5970	7.9375
5971	3.9375
5972	-2.0625
5973	-10.0625
5974	-13.0625
5975	-16.0625
5976	-19.0625
5977	-19.0625
5978	-13.0625
5979	-8.0625
5980	-1.0625
5981	6.9375
5982	12.9375
5983	18.9375
5984	26.9375
5985	23.9375
5986	24.9375
5987	22.9375
5988	14.9375
5989	4.9375
5990	-4.0625
5991	-10.0625
5992	-20.0625
5993	-25.0625
5994	-26.0625
5995	-28.0625
5996	-27.0625
5997	-25.0625
5998	-22.0625
5999	-9.0625
6000	2.9375
6001	8.9375
6002	20.9375
6003	27.9375
6004	30.9375
6005	32.9375
6006	32.9375
6007	26.9375
6008	20.9375
6009	5.9375
6010	-2.0625
6011	-14.0625
6012	-25.0625
6013	-30.0625
6014	-35.0625
6015	-32.0625
6016	-32.0625
6017	-27.0625
6018	-12.0625
6019	1.9375
6020	12.9375
6021	21.9375
6022	30.9375
6023	34.9375
6024	33.9375
6025	22.9375
6026	20.9375
6027	8.9375
6028	-1.0625
6029	-13.0625
6030	-22.0625
6031	-28.0625
6032	-29.0625
6033	-27.0625
6034	-21.0625
6035	-18.0625
6036	-12.0625
6037	-5.0625
6038	2.9375
6039	11.9375
6040	22.9375
6041	27.9375
6042	27.9375
6043	22.9375
6044	16.9375
6045	9.9375
6046	3.9375
6047	-3.0625
6048	-6.0625
6049	-12.0625
6050	-18.0625
6051	-19.0625
6052	-22.0625
6053	-20.0625
6054	-12.0625
6055	-4.0625
6056	3.9375
6057	13.9375
6058	18.9375
6059	22.9375
6060	19.9375
6061	20.9375
6062	18.9375
6063	10.9375
6064	2.9375
6065	-6.0625
6066	-13.0625
6067	-18.0625
6068	-23.0625
6069	-23.0625
6070	-24.0625
6071	-18.0625
6072	-12.0625
6073	-2.0625
6074	9.9375
6075	13.9375
6076	19.9375
6077	25.9375
6078	23.9375
6079	16.9375
6080	12.9375
6081	8.9375
6082	1.9375
6083	-9.0625
6084	-14.0625
6085	-22.0625
6086	-24.0625
6087	-26.0625
6088	-22.0625
6089	-15.0625
6090	-10.0625
6091	2.9375
6092	10.9375
6093	21.9375
6094	23.9375
6095	27.9375
6096	29.9375
6097	28.9375
6098	25.9375
6099	20.9375
6100	12.9375
6101	-1.0625
6102	-13.0625
6103	-19.0625
6104	-29.0625
6105	-34.0625
6106	-35.0625
6107	-30.0625
6108	-23.0625
6109	-15.0625
6110	-9.0625
6111	0.9375
6112	9.9375
6113	22.9375
6114	33.9375
6115	40.9375
6116	40.9375
6117	30.9375
6118	21.9375
6119	9.9375
6120	-6.0625
6121	-17.0625
6122	-26.0625
6123	-34.0625
6124	-41.0625
6125	-41.0625
6126	-38.0625
6127	-35.0625
6128	-22.0625
6129	-11.0625
6130	2.9375
6131	18.9375
6132	32.9375
6133	40.9375
6134	46.9375
6135	46.9375
6136	38.9375
6137	34.9375
6138	22.9375
6139	14.9375
6140	4.9375
6141	-10.0625
6142	-20.0625
6143	-30.0625
6144	-40.0625
6145	-42.0625
6146	-43.0625
6147	-36.0625
6148	-25.0625
6149	-12.0625
6150	-5.0625
6151	4.9375
6152	17.9375
6153	27.9375
6154	36.9375
6155	40.9375
6156	41.9375
6157	35.9375
6158	27.9375
6159	11.9375
6160	-3.0625
6161	-14.0625
6162	-30.0625
6163	-35.0625
6164	-38.0625
6165	-36.0625
6166	-34.0625
6167	-27.0625
6168	-20.0625
6169	-7.0625
6170	4.9375
6171	13.9375
6172	26.9375
6173	35.9375
6174	38.9375
6175	36.9375
6176	29.9375
6177	22.9375
6178	12.9375
6179	1.9375
6180	-5.0625
6181	-12.0625
6182	-19.0625
6183	-26.0625
6184	-29.0625
6185	-24.0625
6186	-24.0625
6187	-20.0625
6188	-14.0625
6189	-3.0625
6190	4.9375
6191	14.9375
6192	22.9375
6193	27.9375
6194	26.9375
6195	26.9375
6196	22.9375
6197	18.9375
6198	7.9375
6199	0.9375
6200	-9.0625
6201	-15.0625
6202	-21.0625
6203	-26.0625
6204	-25.0625
6205	-21.0625
6206	-14.0625
6207	-6.0625
6208	-0.0625
6209	9.9375
6210	15.9375
6211	21.9375
6212	24.9375
6213	17.9375
6214	16.9375
6215	7.9375
6216	-1.0625
6217	-7.0625
6218	-11.0625
6219	-17.0625
6220	-18.0625
6221	-19.0625
6222	-17.0625
6223	-13.0625
6224	-8.0625
6225	-6.0625
6226	-0.0625
6227	8.9375
6228	11.9375
6229	16.9375
6230	19.9375
6231	16.9375
6232	12.9375
6233	10.9375
6234	9.9375
6235	3.9375
6236	0.9375
6237	-3.0625
6238	-11.0625
6239	-16.0625
6240	-17.0625
6241	-17.0625
6242	-12.0625
6243	-7.0625
6244	-3.0625
6245	2.9375
6246	3.9375
6247	10.9375
6248	12.9375
6249	16.9375
6250	17.9375
6251	15.9375
6252	10.9375
6253	4.9375
6254	-1.0625
6255	-5.0625
6256	-12.0625
6257	-18.0625
6258	-20.0625
6259	-18.0625
6260	-16.0625
6261	-13.0625
6262	-9.0625
6263	-4.0625
6264	0.9375
6265	4.9375
6266	4.9375
6267	10.9375
6268	12.9375
6269	10.9375
6270	9.9375
6271	8.9375
6272	6.9375
6273	2.9375
6274	-0.0625
6275	-6.0625
6276	-6.0625
6277	-3.0625
6278	-5.0625
6279	-7.0625
6280	-3.0625
6281	-3.0625
6282	-2.0625
6283	-1.0625
6284	0.9375
6285	5.9375
6286	10.9375
6287	8.9375
6288	11.9375
6289	12.9375
6290	8.9375
6291	5.9375
6292	4.9375
6293	1.9375
6294	-2.0625
6295	-2.0625
6296	-4.0625
6297	-6.0625
6298	-11.0625
6299	-11.0625
6300	-13.0625
6301	-14.0625
6302	-11.0625
6303	-5.0625
6304	-2.0625
6305	0.9375
6306	1.9375
6307	5.9375
6308	6.9375
6309	5.9375
6310	7.9375
6311	7.9375
6312	3.9375
6313	3.9375
6314	0.9375
6315	1.9375
6316	0.9375
6317	-6.0625
6318	-5.0625
6319	-9.0625
6320	-8.0625
6321	-9.0625
6322	-6.0625
6323	-3.0625
6324	2.9375
6325	4.9375
6326	8.9375
6327	12.9375
6328	17.9375
6329	19.9375
6330	20.9375
6331	19.9375
6332	14.9375
6333	3.9375
6334	-0.0625
6335	-7.0625
6336	-16.0625
6337	-21.0625
6338	-25.0625
6339	-28.0625
6340	-25.0625
6341	-19.0625
6342	-10.0625
6343	-3.0625
6344	4.9375
6345	17.9375
6346	21.9375
6347	22.9375
6348	23.9375
6349	22.9375
6350	17.9375
6351	10.9375
6352	2.9375
6353	-9.0625
6354	-13.0625
6355	-20.0625
6356	-24.0625
6357	-28.0625
6358	-25.0625
6359	-23.0625
6360	-14.0625
6361	-6.0625
6362	0.9375
6363	11.9375
6364	21.9375
6365	25.9375
6366	25.9375
6367	29.9375
6368	31.9375
6369	20.9375
6370	14.9375
6371	4.9375
6372	-7.0625
6373	-21.0625
6374	-28.0625
6375	-32.0625
6376	-32.0625
6377	-30.0625
6378	-21.0625
6379	-11.0625
6380	-5.0625
6381	6.9375
6382	16.9375
6383	23.9375
6384	31.9375
6385	36.9375
6386	34.9375
6387	28.9375
6388	21.9375
6389	6.9375
6390	-9.0625
6391	-20.0625
6392	-27.0625
6393	-33.0625
6394	-33.0625
6395	-29.0625
6396	-23.0625
6397	-18.0625
6398	-6.0625
6399	1.9375
6400	10.9375
6401	19.9375
6402	28.9375
6403	28.9375
6404	26.9375
6405	22.9375
6406	14.9375
6407	4.9375
6408	-9.0625
6409	-15.0625
6410	-16.0625
6411	-25.0625
6412	-26.0625
6413	-22.0625
6414	-21.0625
6415	-14.0625
6416	-6.0625
6417	-2.0625
6418	6.9375
6419	15.9375
6420	24.9375
6421	26.9375
6422	26.9375
6423	23.9375
6424	15.9375
6425	8.9375
6426	-0.0625
6427	-5.0625
6428	-10.0625
6429	-16.0625
6430	-20.0625
6431	-19.0625
6432	-19.0625
6433	-15.0625
6434	-9.0625
6435	-3.0625
6436	5.9375
6437	9.9375
6438	17.9375
6439	20.9375
6440	19.9375
6441	17.9375
6442	11.9375
6443	6.9375
6444	-0.0625
6445	-10.0625
6446	-17.0625
6447	-16.0625
6448	-22.0625
6449	-23.0625
6450	-20.0625
6451	-16.0625
6452	-10.0625
6453	-4.0625
6454	2.9375
6455	9.9375
6456	15.9375
6457	13.9375
6458	14.9375
6459	11.9375
6460	10.9375
6461	7.9375
6462	5.9375
6463	-0.0625
6464	-5.0625
6465	-6.0625
6466	-9.0625
6467	-10.0625
6468	-9.0625
6469	-7.0625
6470	-5.0625
6471	-0.0625
6472	0.9375
6473	8.9375
6474	9.9375
6475	14.9375
6476	14.9375
6477	14.9375
6478	13.9375
6479	9.9375
6480	5.9375
6481	1.9375
6482	-0.0625
6483	-8.0625
6484	-12.0625
6485	-17.0625
6486	-19.0625
6487	-19.0625
6488	-17.0625
6489	-14.0625
